Data from Al_FLMS009871__644__15-00-35-196.txt Node

Date: Fri Mar 08 15:00:35 CST 2024
User: pe5414po
Spectrometer: FLMS00987
Trigger mode: 0
Integration Time (sec): 1.000000E-1
Scans to average: 1
Electric dark correction enabled: true
Nonlinearity correction enabled: false
Boxcar width: 0
XAxis mode: Wavelengths
Number of Pixels in Spectrum: 2048
>>>>>Begin Spectral Data<<<<<
188.938	-70.95
189.409	-70.95
189.879	-70.95
190.349	-129.46
190.819	-110.74
191.29	-89.67
191.76	-101.37
192.23	-73.29
192.7	-110.74
193.17	34.38
193.64	-52.22
194.109	-26.48
194.579	-35.84
195.049	-49.88
195.519	-0.73
195.988	46.08
196.458	29.7
196.927	48.42
197.397	106.93
197.866	156.08
198.336	118.64
198.805	160.77
199.274	123.32
199.744	158.43
200.213	186.51
200.682	135.02
201.151	216.94
201.62	259.07
202.089	235.66
202.558	282.47
203.027	256.73
203.495	249.71
203.964	256.73
204.433	348.01
204.902	296.52
205.37	280.13
205.839	308.22
206.307	270.77
206.776	259.07
207.244	280.13
207.712	315.24
208.181	333.97
208.649	296.52
209.117	303.54
209.585	362.05
210.053	266.09
210.521	308.22
210.989	331.62
211.457	364.39
211.925	284.81
212.393	284.81
212.861	329.28
213.328	270.77
213.796	305.88
214.264	247.37
214.731	238
215.199	273.11
215.666	277.79
216.133	261.41
216.601	266.09
217.068	284.81
217.535	291.84
218.003	238
218.47	273.11
218.937	238
219.404	326.94
219.871	254.39
220.338	270.77
220.805	277.79
221.271	252.05
221.738	221.62
222.205	240.34
222.671	273.11
223.138	289.5
223.605	212.26
224.071	261.41
224.538	200.55
225.004	315.24
225.47	315.24
225.937	233.32
226.403	249.71
226.869	284.81
227.335	270.77
227.801	252.05
228.267	226.3
228.733	256.73
229.199	294.18
229.665	296.52
230.131	310.56
230.597	230.98
231.062	247.37
231.528	280.13
231.994	294.18
232.459	301.2
232.925	289.5
233.39	256.73
233.856	216.94
234.321	298.86
234.786	221.62
235.252	310.56
235.717	256.73
236.182	296.52
236.647	329.28
237.112	289.5
237.577	216.94
238.042	238
238.507	266.09
238.972	268.43
239.436	296.52
239.901	333.97
240.366	275.45
240.83	252.05
241.295	280.13
241.76	317.58
242.224	214.6
242.688	266.09
243.153	301.2
243.617	263.75
244.081	338.65
244.545	282.47
245.01	270.77
245.474	301.2
245.938	249.71
246.402	319.92
246.866	273.11
247.33	305.88
247.793	324.6
248.257	256.73
248.721	277.79
249.185	324.6
249.648	261.41
250.112	308.22
250.575	298.86
251.039	275.45
251.502	275.45
251.965	296.52
252.429	254.39
252.892	352.69
253.355	298.86
253.818	289.5
254.281	312.9
254.744	282.47
255.207	270.77
255.67	263.75
256.133	287.15
256.596	289.5
257.059	282.47
257.522	301.2
257.984	259.07
258.447	275.45
258.909	319.92
259.372	245.02
259.834	324.6
260.297	294.18
260.759	266.09
261.221	287.15
261.684	287.15
262.146	256.73
262.608	322.26
263.07	280.13
263.532	266.09
263.994	345.67
264.456	298.86
264.918	252.05
265.38	254.39
265.842	256.73
266.303	305.88
266.765	301.2
267.227	310.56
267.688	268.43
268.15	340.99
268.611	266.09
269.072	291.84
269.534	230.98
269.995	336.31
270.456	369.07
270.918	303.54
271.379	329.28
271.84	383.12
272.301	348.01
272.762	252.05
273.223	275.45
273.684	338.65
274.144	296.52
274.605	282.47
275.066	259.07
275.527	270.77
275.987	268.43
276.448	322.26
276.908	263.75
277.369	322.26
277.829	291.84
278.289	350.35
278.75	284.81
279.21	333.97
279.67	308.22
280.13	305.88
280.59	284.81
281.05	261.41
281.51	373.75
281.97	343.33
282.43	322.26
282.89	261.41
283.35	343.33
283.809	282.47
284.269	331.62
284.729	247.37
285.188	277.79
285.648	284.81
286.107	268.43
286.567	280.13
287.026	280.13
287.485	355.03
287.944	312.9
288.404	322.26
288.863	338.65
289.322	296.52
289.781	296.52
290.24	289.5
290.699	298.86
291.158	348.01
291.616	312.9
292.075	298.86
292.534	380.78
292.992	348.01
293.451	329.28
293.91	331.62
294.368	296.52
294.827	280.13
295.285	259.07
295.743	348.01
296.202	289.5
296.66	312.9
297.118	287.15
297.576	284.81
298.034	296.52
298.492	287.15
298.95	326.94
299.408	345.67
299.866	280.13
300.324	336.31
300.781	322.26
301.239	268.43
301.697	315.24
302.154	301.2
302.612	333.97
303.069	294.18
303.527	223.96
303.984	270.77
304.441	343.33
304.899	308.22
305.356	364.39
305.813	315.24
306.27	319.92
306.727	355.03
307.184	305.88
307.641	287.15
308.098	364.39
308.555	310.56
309.012	277.79
309.468	303.54
309.925	275.45
310.382	291.84
310.838	287.15
311.295	247.37
311.751	322.26
312.208	312.9
312.664	291.84
313.12	317.58
313.577	317.58
314.033	331.62
314.489	383.12
314.945	310.56
315.401	329.28
315.857	254.39
316.313	355.03
316.769	263.75
317.225	301.2
317.681	371.41
318.136	329.28
318.592	277.79
319.048	291.84
319.503	249.71
319.959	247.37
320.414	315.24
320.869	364.39
321.325	329.28
321.78	340.99
322.235	280.13
322.691	331.62
323.146	380.78
323.601	287.15
324.056	359.71
324.511	263.75
324.966	270.77
325.421	350.35
325.875	270.77
326.33	298.86
326.785	254.39
327.24	366.73
327.694	266.09
328.149	413.54
328.603	296.52
329.058	277.79
329.512	324.6
329.966	298.86
330.421	343.33
330.875	303.54
331.329	331.62
331.783	317.58
332.237	273.11
332.691	303.54
333.145	308.22
333.599	275.45
334.053	348.01
334.507	296.52
334.96	238
335.414	291.84
335.868	270.77
336.321	301.2
336.775	303.54
337.228	317.58
337.682	333.97
338.135	310.56
338.588	324.6
339.042	308.22
339.495	287.15
339.948	312.9
340.401	301.2
340.854	326.94
341.307	352.69
341.76	303.54
342.213	312.9
342.666	282.47
343.119	376.09
343.571	350.35
344.024	312.9
344.477	275.45
344.929	357.37
345.382	357.37
345.834	378.44
346.287	331.62
346.739	247.37
347.191	348.01
347.644	287.15
348.096	294.18
348.548	322.26
349	284.81
349.452	315.24
349.904	364.39
350.356	317.58
350.808	303.54
351.26	289.5
351.711	275.45
352.163	362.05
352.615	305.88
353.066	322.26
353.518	329.28
353.969	303.54
354.421	247.37
354.872	340.99
355.324	275.45
355.775	348.01
356.226	322.26
356.677	266.09
357.128	331.62
357.579	336.31
358.03	301.2
358.481	303.54
358.932	308.22
359.383	336.31
359.834	324.6
360.285	287.15
360.735	289.5
361.186	301.2
361.637	352.69
362.087	298.86
362.538	322.26
362.988	338.65
363.438	324.6
363.889	336.31
364.339	366.73
364.789	350.35
365.239	263.75
365.689	331.62
366.139	263.75
366.589	226.3
367.039	294.18
367.489	296.52
367.939	275.45
368.389	357.37
368.839	291.84
369.288	383.12
369.738	298.86
370.187	359.71
370.637	319.92
371.086	333.97
371.536	291.84
371.985	301.2
372.434	350.35
372.884	305.88
373.333	331.62
373.782	333.97
374.231	338.65
374.68	289.5
375.129	326.94
375.578	312.9
376.027	340.99
376.475	348.01
376.924	319.92
377.373	324.6
377.822	303.54
378.27	369.07
378.719	324.6
379.167	296.52
379.616	345.67
380.064	303.54
380.512	326.94
380.961	303.54
381.409	331.62
381.857	329.28
382.305	280.13
382.753	324.6
383.201	256.73
383.649	326.94
384.097	333.97
384.545	362.05
384.992	294.18
385.44	331.62
385.888	324.6
386.335	326.94
386.783	312.9
387.231	336.31
387.678	331.62
388.125	378.44
388.573	366.73
389.02	355.03
389.467	259.07
389.914	336.31
390.362	340.99
390.809	287.15
391.256	291.84
391.703	345.67
392.15	287.15
392.596	364.39
393.043	275.45
393.49	273.11
393.937	319.92
394.383	364.39
394.83	352.69
395.276	326.94
395.723	338.65
396.169	333.97
396.616	301.2
397.062	266.09
397.508	287.15
397.954	310.56
398.401	317.58
398.847	277.79
399.293	280.13
399.739	355.03
400.185	343.33
400.631	338.65
401.076	336.31
401.522	352.69
401.968	282.47
402.414	355.03
402.859	305.88
403.305	362.05
403.75	289.5
404.196	333.97
404.641	324.6
405.086	336.31
405.532	317.58
405.977	291.84
406.422	326.94
406.867	303.54
407.312	319.92
407.757	291.84
408.202	287.15
408.647	338.65
409.092	355.03
409.537	348.01
409.982	291.84
410.426	270.77
410.871	348.01
411.316	282.47
411.76	366.73
412.205	329.28
412.649	338.65
413.093	315.24
413.538	348.01
413.982	329.28
414.426	282.47
414.87	235.66
415.314	369.07
415.758	296.52
416.202	301.2
416.646	324.6
417.09	366.73
417.534	308.22
417.978	364.39
418.421	348.01
418.865	308.22
419.309	277.79
419.752	348.01
420.196	394.82
420.639	413.54
421.083	329.28
421.526	326.94
421.969	282.47
422.412	245.02
422.856	305.88
423.299	310.56
423.742	329.28
424.185	324.6
424.628	282.47
425.071	266.09
425.513	277.79
425.956	357.37
426.399	355.03
426.842	296.52
427.284	317.58
427.727	275.45
428.169	310.56
428.612	310.56
429.054	294.18
429.497	291.84
429.939	308.22
430.381	380.78
430.823	310.56
431.265	317.58
431.707	282.47
432.149	366.73
432.591	312.9
433.033	291.84
433.475	366.73
433.917	282.47
434.359	329.28
434.8	303.54
435.242	376.09
435.684	319.92
436.125	287.15
436.567	329.28
437.008	326.94
437.449	287.15
437.891	240.34
438.332	326.94
438.773	282.47
439.214	291.84
439.656	317.58
440.097	364.39
440.538	357.37
440.978	357.37
441.419	399.5
441.86	357.37
442.301	315.24
442.742	282.47
443.182	319.92
443.623	340.99
444.063	357.37
444.504	256.73
444.944	273.11
445.385	291.84
445.825	308.22
446.265	301.2
446.706	326.94
447.146	338.65
447.586	277.79
448.026	319.92
448.466	352.69
448.906	324.6
449.346	310.56
449.786	364.39
450.225	282.47
450.665	317.58
451.105	359.71
451.544	348.01
451.984	296.52
452.424	352.69
452.863	338.65
453.302	280.13
453.742	366.73
454.181	247.37
454.62	294.18
455.059	301.2
455.499	268.43
455.938	310.56
456.377	308.22
456.816	317.58
457.254	259.07
457.693	345.67
458.132	324.6
458.571	310.56
459.01	282.47
459.448	340.99
459.887	324.6
460.325	326.94
460.764	333.97
461.202	273.11
461.641	331.62
462.079	336.31
462.517	291.84
462.955	275.45
463.393	324.6
463.832	322.26
464.27	296.52
464.708	357.37
465.145	270.77
465.583	331.62
466.021	373.75
466.459	340.99
466.897	315.24
467.334	348.01
467.772	322.26
468.209	305.88
468.647	317.58
469.084	364.39
469.522	277.79
469.959	355.03
470.396	326.94
470.833	408.86
471.271	259.07
471.708	359.71
472.145	338.65
472.582	376.09
473.019	312.9
473.456	359.71
473.892	326.94
474.329	315.24
474.766	268.43
475.202	326.94
475.639	326.94
476.076	305.88
476.512	345.67
476.949	364.39
477.385	310.56
477.821	366.73
478.258	364.39
478.694	371.41
479.13	376.09
479.566	338.65
480.002	366.73
480.438	319.92
480.874	322.26
481.31	315.24
481.746	362.05
482.181	333.97
482.617	366.73
483.053	256.73
483.488	355.03
483.924	280.13
484.36	345.67
484.795	273.11
485.23	340.99
485.666	348.01
486.101	376.09
486.536	348.01
486.971	296.52
487.407	280.13
487.842	338.65
488.277	333.97
488.712	329.28
489.146	280.13
489.581	296.52
490.016	291.84
490.451	322.26
490.885	287.15
491.32	287.15
491.755	336.31
492.189	352.69
492.624	261.41
493.058	284.81
493.492	252.05
493.927	333.97
494.361	308.22
494.795	324.6
495.229	345.67
495.663	263.75
496.097	294.18
496.531	315.24
496.965	289.5
497.399	310.56
497.833	301.2
498.266	326.94
498.7	336.31
499.134	319.92
499.567	338.65
500.001	362.05
500.434	376.09
500.868	315.24
501.301	296.52
501.734	338.65
502.168	331.62
502.601	296.52
503.034	340.99
503.467	284.81
503.9	268.43
504.333	350.35
504.766	294.18
505.199	317.58
505.632	345.67
506.064	322.26
506.497	280.13
506.93	331.62
507.362	343.33
507.795	385.46
508.227	298.86
508.66	263.75
509.092	261.41
509.524	369.07
509.956	301.2
510.389	324.6
510.821	301.2
511.253	226.3
511.685	242.68
512.117	319.92
512.549	312.9
512.981	291.84
513.412	357.37
513.844	273.11
514.276	291.84
514.707	378.44
515.139	315.24
515.571	348.01
516.002	273.11
516.433	277.79
516.865	261.41
517.296	373.75
517.727	390.14
518.159	352.69
518.59	280.13
519.021	371.41
519.452	348.01
519.883	312.9
520.314	312.9
520.744	338.65
521.175	284.81
521.606	310.56
522.037	350.35
522.467	317.58
522.898	329.28
523.328	322.26
523.759	357.37
524.189	256.73
524.62	315.24
525.05	273.11
525.48	303.54
525.91	273.11
526.341	336.31
526.771	289.5
527.201	291.84
527.631	312.9
528.061	366.73
528.49	301.2
528.92	324.6
529.35	268.43
529.78	298.86
530.209	301.2
530.639	357.37
531.068	238
531.498	340.99
531.927	343.33
532.357	329.28
532.786	273.11
533.215	355.03
533.644	322.26
534.074	383.12
534.503	301.2
534.932	319.92
535.361	362.05
535.79	336.31
536.218	249.71
536.647	329.28
537.076	268.43
537.505	355.03
537.933	282.47
538.362	308.22
538.79	324.6
539.219	345.67
539.647	296.52
540.076	268.43
540.504	315.24
540.932	369.07
541.36	296.52
541.788	340.99
542.217	228.64
542.645	359.71
543.073	266.09
543.5	317.58
543.928	298.86
544.356	312.9
544.784	331.62
545.211	317.58
545.639	362.05
546.067	296.52
546.494	340.99
546.922	312.9
547.349	291.84
547.776	294.18
548.204	322.26
548.631	289.5
549.058	331.62
549.485	329.28
549.912	331.62
550.339	270.77
550.766	291.84
551.193	308.22
551.62	301.2
552.047	308.22
552.474	329.28
552.9	352.69
553.327	352.69
553.754	329.28
554.18	287.15
554.607	366.73
555.033	392.48
555.459	261.41
555.886	277.79
556.312	326.94
556.738	324.6
557.164	319.92
557.59	319.92
558.016	298.86
558.442	329.28
558.868	322.26
559.294	315.24
559.72	315.24
560.145	235.66
560.571	287.15
560.997	298.86
561.422	373.75
561.848	317.58
562.273	259.07
562.699	247.37
563.124	310.56
563.549	357.37
563.974	287.15
564.4	355.03
564.825	369.07
565.25	287.15
565.675	291.84
566.1	340.99
566.525	324.6
566.95	317.58
567.374	387.8
567.799	291.84
568.224	284.81
568.648	303.54
569.073	324.6
569.497	312.9
569.922	282.47
570.346	238
570.771	270.77
571.195	284.81
571.619	331.62
572.043	333.97
572.467	289.5
572.891	259.07
573.315	326.94
573.739	242.68
574.163	322.26
574.587	319.92
575.011	280.13
575.435	254.39
575.858	329.28
576.282	270.77
576.705	366.73
577.129	343.33
577.552	240.34
577.976	385.46
578.399	418.22
578.822	338.65
579.245	350.35
579.669	317.58
580.092	277.79
580.515	406.52
580.938	385.46
581.361	312.9
581.784	371.41
582.206	308.22
582.629	275.45
583.052	385.46
583.474	345.67
583.897	252.05
584.32	338.65
584.742	312.9
585.165	348.01
585.587	319.92
586.009	310.56
586.431	315.24
586.854	275.45
587.276	376.09
587.698	319.92
588.12	315.24
588.542	350.35
588.964	312.9
589.386	305.88
589.807	273.11
590.229	355.03
590.651	336.31
591.073	289.5
591.494	280.13
591.916	310.56
592.337	324.6
592.759	338.65
593.18	333.97
593.601	310.56
594.022	324.6
594.444	364.39
594.865	348.01
595.286	350.35
595.707	287.15
596.128	312.9
596.549	282.47
596.97	333.97
597.39	317.58
597.811	350.35
598.232	340.99
598.652	329.28
599.073	284.81
599.494	305.88
599.914	312.9
600.334	326.94
600.755	273.11
601.175	326.94
601.595	340.99
602.015	345.67
602.436	296.52
602.856	436.95
603.276	324.6
603.696	322.26
604.115	301.2
604.535	252.05
604.955	322.26
605.375	266.09
605.794	312.9
606.214	310.56
606.634	333.97
607.053	247.37
607.473	345.67
607.892	373.75
608.311	366.73
608.731	308.22
609.15	369.07
609.569	287.15
609.988	343.33
610.407	315.24
610.826	333.97
611.245	373.75
611.664	303.54
612.083	345.67
612.501	266.09
612.92	355.03
613.339	305.88
613.757	340.99
614.176	319.92
614.594	359.71
615.013	333.97
615.431	331.62
615.85	317.58
616.268	329.28
616.686	308.22
617.104	303.54
617.522	312.9
617.94	263.75
618.358	362.05
618.776	296.52
619.194	340.99
619.612	364.39
620.03	301.2
620.447	275.45
620.865	326.94
621.282	266.09
621.7	249.71
622.117	277.79
622.535	284.81
622.952	282.47
623.369	289.5
623.787	355.03
624.204	336.31
624.621	312.9
625.038	296.52
625.455	305.88
625.872	315.24
626.289	333.97
626.706	228.64
627.123	326.94
627.539	317.58
627.956	373.75
628.373	312.9
628.789	340.99
629.206	277.79
629.622	273.11
630.038	376.09
630.455	331.62
630.871	289.5
631.287	303.54
631.703	273.11
632.12	296.52
632.536	331.62
632.952	305.88
633.368	336.31
633.783	296.52
634.199	359.71
634.615	275.45
635.031	298.86
635.446	282.47
635.862	336.31
636.277	340.99
636.693	284.81
637.108	380.78
637.524	324.6
637.939	362.05
638.354	425.25
638.77	331.62
639.185	359.71
639.6	383.12
640.015	355.03
640.43	322.26
640.845	294.18
641.259	275.45
641.674	319.92
642.089	305.88
642.504	322.26
642.918	270.77
643.333	317.58
643.747	343.33
644.162	294.18
644.576	312.9
644.991	324.6
645.405	333.97
645.819	322.26
646.233	303.54
646.647	373.75
647.061	261.41
647.475	326.94
647.889	308.22
648.303	355.03
648.717	296.52
649.131	277.79
649.545	310.56
649.958	287.15
650.372	305.88
650.785	322.26
651.199	317.58
651.612	319.92
652.026	270.77
652.439	340.99
652.852	298.86
653.266	277.79
653.679	287.15
654.092	319.92
654.505	289.5
654.918	319.92
655.331	336.31
655.744	266.09
656.156	296.52
656.569	296.52
656.982	291.84
657.394	263.75
657.807	303.54
658.22	275.45
658.632	355.03
659.044	301.2
659.457	329.28
659.869	312.9
660.281	312.9
660.693	259.07
661.106	352.69
661.518	315.24
661.93	364.39
662.342	322.26
662.754	317.58
663.165	317.58
663.577	284.81
663.989	287.15
664.401	298.86
664.812	268.43
665.224	287.15
665.635	350.35
666.047	303.54
666.458	362.05
666.869	317.58
667.281	340.99
667.692	317.58
668.103	359.71
668.514	340.99
668.925	380.78
669.336	312.9
669.747	249.71
670.158	252.05
670.569	326.94
670.979	284.81
671.39	252.05
671.801	415.88
672.211	245.02
672.622	338.65
673.032	331.62
673.443	291.84
673.853	317.58
674.263	338.65
674.674	343.33
675.084	298.86
675.494	282.47
675.904	315.24
676.314	301.2
676.724	322.26
677.134	268.43
677.544	310.56
677.953	331.62
678.363	310.56
678.773	364.39
679.182	378.44
679.592	296.52
680.001	355.03
680.411	282.47
680.82	362.05
681.23	256.73
681.639	336.31
682.048	310.56
682.457	319.92
682.866	345.67
683.275	322.26
683.684	230.98
684.093	319.92
684.502	329.28
684.911	357.37
685.32	317.58
685.728	294.18
686.137	301.2
686.546	216.94
686.954	329.28
687.363	380.78
687.771	270.77
688.179	338.65
688.588	343.33
688.996	348.01
689.404	303.54
689.812	254.39
690.22	305.88
690.628	280.13
691.036	371.41
691.444	247.37
691.852	245.02
692.26	340.99
692.667	305.88
693.075	355.03
693.483	359.71
693.89	343.33
694.298	298.86
694.705	331.62
695.112	291.84
695.52	289.5
695.927	238
696.334	287.15
696.741	289.5
697.148	338.65
697.555	301.2
697.962	336.31
698.369	340.99
698.776	305.88
699.183	324.6
699.59	380.78
699.996	315.24
700.403	355.03
700.81	326.94
701.216	355.03
701.623	242.68
702.029	280.13
702.435	291.84
702.842	329.28
703.248	254.39
703.654	329.28
704.06	324.6
704.466	329.28
704.872	338.65
705.278	287.15
705.684	310.56
706.09	350.35
706.496	324.6
706.901	310.56
707.307	247.37
707.712	315.24
708.118	331.62
708.523	298.86
708.929	319.92
709.334	312.9
709.74	369.07
710.145	303.54
710.55	338.65
710.955	348.01
711.36	401.84
711.765	252.05
712.17	289.5
712.575	319.92
712.98	867.61
713.385	385.46
713.789	291.84
714.194	301.2
714.599	366.73
715.003	303.54
715.408	301.2
715.812	404.18
716.217	282.47
716.621	273.11
717.025	322.26
717.429	324.6
717.833	333.97
718.238	319.92
718.642	362.05
719.046	331.62
719.449	350.35
719.853	340.99
720.257	362.05
720.661	383.12
721.065	336.31
721.468	317.58
721.872	294.18
722.275	326.94
722.679	357.37
723.082	315.24
723.485	357.37
723.889	340.99
724.292	301.2
724.695	310.56
725.098	406.52
725.501	254.39
725.904	312.9
726.307	268.43
726.71	343.33
727.113	322.26
727.516	338.65
727.918	270.77
728.321	378.44
728.724	345.67
729.126	336.31
729.529	324.6
729.931	324.6
730.333	294.18
730.736	324.6
731.138	273.11
731.54	289.5
731.942	364.39
732.344	355.03
732.746	322.26
733.148	380.78
733.55	301.2
733.952	310.56
734.354	310.56
734.756	322.26
735.157	308.22
735.559	352.69
735.96	329.28
736.362	380.78
736.763	312.9
737.165	301.2
737.566	326.94
737.967	376.09
738.368	280.13
738.77	312.9
739.171	296.52
739.572	338.65
739.973	343.33
740.374	380.78
740.774	340.99
741.175	355.03
741.576	212.26
741.977	415.88
742.377	336.31
742.778	359.71
743.178	324.6
743.579	275.45
743.979	270.77
744.379	287.15
744.78	387.8
745.18	350.35
745.58	308.22
745.98	310.56
746.38	303.54
746.78	284.81
747.18	289.5
747.58	333.97
747.98	315.24
748.38	326.94
748.779	317.58
749.179	329.28
749.578	303.54
749.978	378.44
750.377	376.09
750.777	319.92
751.176	348.01
751.575	289.5
751.975	298.86
752.374	315.24
752.773	324.6
753.172	310.56
753.571	291.84
753.97	343.33
754.369	312.9
754.768	294.18
755.166	329.28
755.565	333.97
755.964	233.32
756.362	289.5
756.761	345.67
757.159	319.92
757.558	284.81
757.956	333.97
758.354	333.97
758.753	324.6
759.151	254.39
759.549	275.45
759.947	256.73
760.345	336.31
760.743	308.22
761.141	305.88
761.539	303.54
761.936	289.5
762.334	268.43
762.732	357.37
763.129	340.99
763.527	303.54
763.924	305.88
764.322	373.75
764.719	277.79
765.117	308.22
765.514	331.62
765.911	270.77
766.308	324.6
766.705	303.54
767.102	287.15
767.499	317.58
767.896	305.88
768.293	317.58
768.69	392.48
769.086	364.39
769.483	352.69
769.88	298.86
770.276	343.33
770.673	348.01
771.069	282.47
771.466	322.26
771.862	371.41
772.258	317.58
772.654	362.05
773.05	380.78
773.447	280.13
773.843	387.8
774.239	380.78
774.634	312.9
775.03	322.26
775.426	282.47
775.822	369.07
776.218	247.37
776.613	289.5
777.009	312.9
777.404	376.09
777.8	359.71
778.195	284.81
778.59	301.2
778.986	312.9
779.381	362.05
779.776	270.77
780.171	261.41
780.566	315.24
780.961	270.77
781.356	298.86
781.751	310.56
782.146	245.02
782.54	392.48
782.935	319.92
783.33	305.88
783.724	385.46
784.119	324.6
784.513	282.47
784.908	385.46
785.302	280.13
785.696	282.47
786.09	294.18
786.485	287.15
786.879	301.2
787.273	282.47
787.667	338.65
788.061	298.86
788.454	289.5
788.848	371.41
789.242	319.92
789.636	273.11
790.029	282.47
790.423	371.41
790.816	298.86
791.21	301.2
791.603	310.56
791.997	287.15
792.39	242.68
792.783	315.24
793.176	315.24
793.569	348.01
793.962	387.8
794.355	319.92
794.748	350.35
795.141	303.54
795.534	319.92
795.927	350.35
796.319	343.33
796.712	326.94
797.105	270.77
797.497	305.88
797.89	317.58
798.282	308.22
798.674	399.5
799.067	343.33
799.459	270.77
799.851	282.47
800.243	333.97
800.635	303.54
801.027	336.31
801.419	296.52
801.811	245.02
802.203	317.58
802.594	289.5
802.986	315.24
803.378	247.37
803.769	348.01
804.161	357.37
804.552	310.56
804.944	317.58
805.335	326.94
805.726	371.41
806.118	282.47
806.509	366.73
806.9	348.01
807.291	338.65
807.682	340.99
808.073	291.84
808.464	362.05
808.855	357.37
809.245	296.52
809.636	298.86
810.027	263.75
810.417	331.62
810.808	329.28
811.198	294.18
811.589	352.69
811.979	352.69
812.369	345.67
812.759	324.6
813.15	294.18
813.54	270.77
813.93	364.39
814.32	324.6
814.71	289.5
815.1	355.03
815.489	315.24
815.879	366.73
816.269	303.54
816.658	329.28
817.048	324.6
817.438	359.71
817.827	408.86
818.216	294.18
818.606	348.01
818.995	364.39
819.384	364.39
819.773	275.45
820.163	336.31
820.552	362.05
820.941	305.88
821.33	329.28
821.718	298.86
822.107	263.75
822.496	303.54
822.885	252.05
823.273	329.28
823.662	291.84
824.05	319.92
824.439	298.86
824.827	305.88
825.216	324.6
825.604	362.05
825.992	319.92
826.38	305.88
826.768	364.39
827.156	350.35
827.544	340.99
827.932	343.33
828.32	312.9
828.708	310.56
829.096	350.35
829.483	280.13
829.871	355.03
830.259	284.81
830.646	305.88
831.034	340.99
831.421	254.39
831.808	273.11
832.196	312.9
832.583	345.67
832.97	289.5
833.357	305.88
833.744	352.69
834.131	284.81
834.518	352.69
834.905	273.11
835.292	312.9
835.678	284.81
836.065	280.13
836.452	378.44
836.838	291.84
837.225	350.35
837.611	298.86
837.998	352.69
838.384	308.22
838.77	291.84
839.157	350.35
839.543	333.97
839.929	294.18
840.315	296.52
840.701	357.37
841.087	345.67
841.473	308.22
841.858	326.94
842.244	350.35
842.63	296.52
843.015	263.75
843.401	539.93
843.787	338.65
844.172	242.68
844.557	317.58
844.943	291.84
845.328	294.18
845.713	362.05
846.098	343.33
846.483	268.43
846.868	324.6
847.253	326.94
847.638	280.13
848.023	312.9
848.408	322.26
848.793	336.31
849.177	287.15
849.562	305.88
849.947	247.37
850.331	326.94
850.715	315.24
851.1	359.71
851.484	317.58
851.868	289.5
852.253	315.24
852.637	326.94
853.021	275.45
853.405	282.47
853.789	333.97
854.173	247.37
854.557	324.6
854.94	326.94
855.324	319.92
855.708	266.09
856.091	350.35
856.475	345.67
856.858	315.24
857.242	329.28
857.625	345.67
858.009	270.77
858.392	230.98
858.775	303.54
859.158	319.92
859.541	263.75
859.924	263.75
860.307	312.9
860.69	298.86
861.073	245.02
861.456	343.33
861.838	287.15
862.221	340.99
862.604	338.65
862.986	362.05
863.369	303.54
863.751	350.35
864.133	261.41
864.516	259.07
864.898	298.86
865.28	326.94
865.662	312.9
866.044	310.56
866.426	369.07
866.808	315.24
867.19	296.52
867.572	326.94
867.954	305.88
868.336	350.35
868.717	312.9
869.099	336.31
869.48	291.84
869.862	317.58
870.243	303.54
870.625	387.8
871.006	287.15
871.387	348.01
871.768	329.28
872.149	322.26
872.53	369.07
872.911	317.58
873.292	315.24
873.673	366.73
874.054	289.5
874.435	336.31
874.815	277.79
875.196	308.22
875.577	296.52
875.957	324.6
876.338	301.2
876.718	270.77
877.098	240.34
877.479	247.37
877.859	294.18
878.239	221.62
878.619	352.69
878.999	340.99
879.379	340.99
879.759	256.73
880.139	350.35
880.519	336.31
880.898	350.35
881.278	345.67
881.658	280.13
882.037	284.81
882.417	282.47
882.796	340.99
883.176	315.24
883.555	338.65
883.934	256.73
884.313	301.2
884.693	298.86
885.072	266.09
885.451	348.01
885.83	312.9
886.209	343.33
886.587	301.2
886.966	326.94
887.345	301.2
887.724	270.77
888.102	280.13
888.481	245.02
888.859	277.79
889.238	273.11
889.616	343.33
889.994	301.2
890.373	310.56
890.751	373.75
891.129	343.33
891.507	308.22
891.885	348.01
892.263	338.65
892.641	352.69
893.019	345.67
893.396	357.37
893.774	338.65
894.152	343.33
894.529	336.31
894.907	301.2
895.284	343.33
895.662	333.97
896.039	298.86
896.416	291.84
896.794	310.56
897.171	312.9
897.548	270.77
897.925	277.79
898.302	277.79
898.679	310.56
899.056	284.81
899.433	362.05
899.809	317.58
900.186	280.13
900.563	259.07
900.939	303.54
901.316	280.13
901.692	357.37
902.069	249.71
902.445	303.54
902.821	317.58
903.197	282.47
903.574	329.28
903.95	294.18
904.326	317.58
904.702	240.34
905.078	343.33
905.454	287.15
905.829	336.31
906.205	333.97
906.581	364.39
906.956	317.58
907.332	326.94
907.707	338.65
908.083	308.22
908.458	277.79
908.833	366.73
909.209	268.43
909.584	366.73
909.959	324.6
910.334	280.13
910.709	268.43
911.084	308.22
911.459	343.33
911.834	378.44
912.209	259.07
912.583	317.58
912.958	315.24
913.333	308.22
913.707	350.35
914.082	303.54
914.456	319.92
914.83	266.09
915.205	282.47
915.579	312.9
915.953	308.22
916.327	338.65
916.701	303.54
917.075	338.65
917.449	312.9
917.823	296.52
918.197	343.33
918.571	312.9
918.944	315.24
919.318	275.45
919.692	284.81
920.065	336.31
920.438	284.81
920.812	284.81
921.185	298.86
921.558	340.99
921.932	343.33
922.305	289.5
922.678	289.5
923.051	329.28
923.424	378.44
923.797	322.26
924.17	333.97
924.542	301.2
924.915	357.37
925.288	317.58
925.661	359.71
926.033	298.86
926.406	296.52
926.778	291.84
927.15	291.84
927.523	336.31
927.895	282.47
928.267	387.8
928.639	310.56
929.011	310.56
929.383	207.58
929.755	329.28
930.127	326.94
930.499	273.11
930.871	333.97
931.242	277.79
931.614	315.24
931.986	277.79
932.357	240.34
932.729	266.09
933.1	322.26
933.471	294.18
933.843	340.99
934.214	261.41
934.585	331.62
934.956	284.81
935.327	298.86
935.698	312.9
936.069	254.39
936.44	350.35
936.811	336.31
937.182	282.47
937.552	312.9
937.923	329.28
938.293	345.67
938.664	263.75
939.034	277.79
939.405	284.81
939.775	324.6
940.145	301.2
940.516	301.2
940.886	270.77
941.256	336.31
941.626	317.58
941.996	348.01
942.366	362.05
942.735	273.11
943.105	357.37
943.475	338.65
943.845	329.28
944.214	275.45
944.584	240.34
944.953	343.33
945.323	282.47
945.692	282.47
946.061	308.22
946.43	280.13
946.8	350.35
947.169	296.52
947.538	315.24
947.907	352.69
948.276	240.34
948.645	378.44
949.013	303.54
949.382	308.22
949.751	317.58
950.119	355.03
950.488	331.62
950.857	289.5
951.225	357.37
951.593	296.52
951.962	301.2
952.33	359.71
952.698	343.33
953.066	315.24
953.434	284.81
953.802	343.33
954.17	238
954.538	280.13
954.906	331.62
955.274	256.73
955.642	331.62
956.009	326.94
956.377	338.65
956.744	326.94
957.112	326.94
957.479	275.45
957.847	315.24
958.214	315.24
958.581	268.43
958.948	310.56
959.315	336.31
959.683	326.94
960.05	261.41
960.416	350.35
960.783	348.01
961.15	324.6
961.517	366.73
961.884	338.65
962.25	261.41
962.617	352.69
962.983	280.13
963.35	254.39
963.716	333.97
964.082	371.41
964.449	284.81
964.815	324.6
965.181	282.47
965.547	359.71
965.913	256.73
966.279	331.62
966.645	317.58
967.011	287.15
967.377	340.99
967.742	294.18
968.108	364.39
968.474	296.52
968.839	270.77
969.205	312.9
969.57	350.35
969.935	319.92
970.301	331.62
970.666	268.43
971.031	373.75
971.396	355.03
971.761	329.28
972.126	340.99
972.491	294.18
972.856	338.65
973.221	296.52
973.586	291.84
973.95	261.41
974.315	256.73
974.679	296.52
975.044	270.77
975.408	282.47
975.773	324.6
976.137	340.99
976.501	326.94
976.866	296.52
977.23	343.33
977.594	336.31
977.958	280.13
978.322	329.28
978.686	373.75
979.049	355.03
979.413	305.88
979.777	333.97
980.141	287.15
980.504	343.33
980.868	291.84
981.231	289.5
981.595	238
981.958	308.22
982.321	317.58
982.684	296.52
983.048	329.28
983.411	312.9
983.774	319.92
984.137	305.88
984.5	345.67
984.862	366.73
985.225	242.68
985.588	273.11
985.951	359.71
986.313	352.69
986.676	291.84
987.038	319.92
987.401	352.69
987.763	312.9
988.125	266.09
988.488	291.84
988.85	324.6
989.212	331.62
989.574	345.67
989.936	326.94
990.298	329.28
990.66	336.31
991.022	280.13
991.383	287.15
991.745	315.24
992.107	324.6
992.468	324.6
992.83	282.47
993.191	294.18
993.553	280.13
993.914	266.09
994.275	303.54
994.637	366.73
994.998	275.45
995.359	366.73
995.72	340.99
996.081	359.71
996.442	305.88
996.803	280.13
997.163	329.28
997.524	308.22
997.885	275.45
998.245	294.18
998.606	235.66
998.966	235.66
999.327	333.97
999.687	294.18
1000.047	378.44
1000.408	366.73
1000.768	249.71
1001.128	261.41
1001.488	228.64
1001.848	322.26
1002.208	273.11
1002.568	326.94
1002.927	301.2
1003.287	266.09
1003.647	322.26
1004.007	301.2
1004.366	343.33
1004.726	333.97
1005.085	331.62
1005.444	266.09
1005.804	296.52
1006.163	275.45
1006.522	270.77
1006.881	322.26
1007.24	280.13
1007.599	303.54
1007.958	340.99
1008.317	333.97
1008.676	289.5
1009.035	324.6
1009.393	331.62
1009.752	308.22
1010.111	289.5
1010.469	343.33
1010.828	312.9
1011.186	238
1011.544	230.98
1011.903	291.84
1012.261	317.58
1012.619	233.32
1012.977	331.62
1013.335	289.5
1013.693	357.37
1014.051	282.47
1014.409	343.33
1014.767	336.31
1015.124	343.33
1015.482	343.33
1015.84	310.56
1016.197	312.9
1016.555	287.15
1016.912	242.68
1017.269	326.94
1017.627	301.2
1017.984	256.73
1018.341	289.5
1018.698	268.43
1019.055	249.71
1019.412	348.01
1019.769	322.26
1020.126	324.6
1020.483	322.26
1020.84	303.54
1021.196	263.75
1021.553	252.05
1021.909	303.54
1022.266	303.54
1022.622	326.94
1022.979	380.78
1023.335	366.73
1023.691	317.58
1024.047	298.86
1024.404	357.37
1024.76	261.41
1025.116	315.24
1025.472	296.52
1025.827	305.88
1026.183	291.84
1026.539	277.79
1026.895	317.58
1027.25	336.31
1027.606	317.58
1027.961	310.56
1028.317	303.54
1028.672	366.73
1029.028	296.52
1029.383	333.97
1029.738	291.84
1030.093	331.62
1030.448	348.01
1030.803	326.94
1031.158	312.9
1031.513	338.65
1031.868	340.99
1032.223	273.11
1032.577	310.56
1032.932	322.26
1033.287	343.33
1033.641	303.54
1033.996	277.79
1034.35	338.65
1034.704	331.62
1035.059	326.94
1035.413	331.62
1035.767	331.62
1036.121	331.62
