Data from Al_FLMS009871__933__16-19-07-223.txt Node

Date: Fri Mar 08 16:19:07 CST 2024
User: pe5414po
Spectrometer: FLMS00987
Trigger mode: 0
Integration Time (sec): 1.000000E-1
Scans to average: 1
Electric dark correction enabled: true
Nonlinearity correction enabled: false
Boxcar width: 0
XAxis mode: Wavelengths
Number of Pixels in Spectrum: 2048
>>>>>Begin Spectral Data<<<<<
188.938	-97.42
189.409	-97.42
189.879	-97.42
190.349	-123.17
190.819	-83.38
191.29	-74.02
191.76	-34.23
192.23	-141.89
192.7	-118.49
193.17	-52.95
193.64	-10.82
194.109	-45.93
194.579	-57.64
195.049	-17.85
195.519	-45.93
195.988	82.8
196.458	45.35
196.927	106.2
197.397	92.16
197.866	124.93
198.336	148.33
198.805	115.56
199.274	136.63
199.744	190.46
200.213	225.57
200.682	195.14
201.151	267.7
201.62	277.06
202.089	197.48
202.558	237.27
203.027	223.23
203.495	277.06
203.964	295.79
204.433	279.4
204.902	281.74
205.37	256
205.839	333.23
206.307	286.42
206.776	349.62
207.244	326.21
207.712	258.34
208.181	300.47
208.649	291.1
209.117	291.1
209.585	246.63
210.053	253.66
210.521	316.85
210.989	279.4
211.457	274.72
211.925	272.38
212.393	274.72
212.861	312.17
213.328	270.04
213.796	309.83
214.264	321.53
214.731	286.42
215.199	253.66
215.666	284.08
216.133	270.04
216.601	309.83
217.068	267.7
217.535	260.68
218.003	239.61
218.47	288.76
218.937	293.44
219.404	253.66
219.871	260.68
220.338	239.61
220.805	274.72
221.271	169.4
221.738	288.76
222.205	293.44
222.671	234.93
223.138	258.34
223.605	246.63
224.071	241.95
224.538	230.25
225.004	270.04
225.47	239.61
225.937	342.6
226.403	213.87
226.869	258.34
227.335	274.72
227.801	220.89
228.267	291.1
228.733	298.13
229.199	244.29
229.665	263.02
230.131	277.06
230.597	256
231.062	279.4
231.528	293.44
231.994	251.32
232.459	305.15
232.925	286.42
233.39	288.76
233.856	314.51
234.321	265.36
234.786	220.89
235.252	263.02
235.717	316.85
236.182	277.06
236.647	323.87
237.112	333.23
237.577	256
238.042	223.23
238.507	253.66
238.972	309.83
239.436	234.93
239.901	239.61
240.366	326.21
240.83	260.68
241.295	265.36
241.76	349.62
242.224	272.38
242.688	288.76
243.153	302.81
243.617	258.34
244.081	305.15
244.545	237.27
245.01	279.4
245.474	216.21
245.938	309.83
246.402	295.79
246.866	263.02
247.33	241.95
247.793	246.63
248.257	270.04
248.721	309.83
249.185	316.85
249.648	284.08
250.112	309.83
250.575	293.44
251.039	274.72
251.502	321.53
251.965	281.74
252.429	274.72
252.892	263.02
253.355	295.79
253.818	216.21
254.281	288.76
254.744	295.79
255.207	316.85
255.67	253.66
256.133	223.23
256.596	316.85
257.059	267.7
257.522	284.08
257.984	284.08
258.447	340.26
258.909	302.81
259.372	309.83
259.834	291.1
260.297	230.25
260.759	263.02
261.221	295.79
261.684	260.68
262.146	288.76
262.608	286.42
263.07	363.66
263.532	300.47
263.994	298.13
264.456	265.36
264.918	295.79
265.38	284.08
265.842	321.53
266.303	279.4
266.765	314.51
267.227	234.93
267.688	291.1
268.15	272.38
268.611	349.62
269.072	305.15
269.534	279.4
269.995	316.85
270.456	284.08
270.918	277.06
271.379	319.19
271.84	241.95
272.301	284.08
272.762	305.15
273.223	305.15
273.684	265.36
274.144	316.85
274.605	291.1
275.066	347.28
275.527	319.19
275.987	267.7
276.448	270.04
276.908	312.17
277.369	344.94
277.829	302.81
278.289	328.55
278.75	335.57
279.21	281.74
279.67	218.55
280.13	309.83
280.59	312.17
281.05	316.85
281.51	340.26
281.97	328.55
282.43	302.81
282.89	281.74
283.35	298.13
283.809	267.7
284.269	363.66
284.729	291.1
285.188	316.85
285.648	274.72
286.107	375.36
286.567	274.72
287.026	279.4
287.485	288.76
287.944	291.1
288.404	335.57
288.863	258.34
289.322	279.4
289.781	335.57
290.24	321.53
290.699	279.4
291.158	309.83
291.616	326.21
292.075	344.94
292.534	300.47
292.992	354.3
293.451	312.17
293.91	284.08
294.368	293.44
294.827	312.17
295.285	316.85
295.743	281.74
296.202	351.96
296.66	281.74
297.118	300.47
297.576	274.72
298.034	373.02
298.492	295.79
298.95	307.49
299.408	218.55
299.866	305.15
300.324	246.63
300.781	370.68
301.239	321.53
301.697	281.74
302.154	248.97
302.612	277.06
303.069	267.7
303.527	309.83
303.984	316.85
304.441	328.55
304.899	248.97
305.356	281.74
305.813	344.94
306.27	321.53
306.727	274.72
307.184	295.79
307.641	293.44
308.098	349.62
308.555	384.73
309.012	319.19
309.468	234.93
309.925	258.34
310.382	281.74
310.838	340.26
311.295	330.89
311.751	335.57
312.208	286.42
312.664	358.98
313.12	291.1
313.577	328.55
314.033	288.76
314.489	281.74
314.945	253.66
315.401	293.44
315.857	358.98
316.313	358.98
316.769	298.13
317.225	288.76
317.681	351.96
318.136	277.06
318.592	384.73
319.048	344.94
319.503	288.76
319.959	263.02
320.414	258.34
320.869	298.13
321.325	330.89
321.78	302.81
322.235	274.72
322.691	351.96
323.146	302.81
323.601	319.19
324.056	328.55
324.511	323.87
324.966	286.42
325.421	272.38
325.875	316.85
326.33	288.76
326.785	291.1
327.24	300.47
327.694	321.53
328.149	344.94
328.603	321.53
329.058	335.57
329.512	298.13
329.966	323.87
330.421	298.13
330.875	305.15
331.329	298.13
331.783	312.17
332.237	309.83
332.691	349.62
333.145	380.04
333.599	298.13
334.053	309.83
334.507	377.7
334.96	337.91
335.414	277.06
335.868	270.04
336.321	270.04
336.775	333.23
337.228	302.81
337.682	263.02
338.135	293.44
338.588	260.68
339.042	328.55
339.495	267.7
339.948	321.53
340.401	314.51
340.854	298.13
341.307	270.04
341.76	300.47
342.213	328.55
342.666	272.38
343.119	387.07
343.571	284.08
344.024	410.47
344.477	312.17
344.929	340.26
345.382	291.1
345.834	309.83
346.287	293.44
346.739	351.96
347.191	309.83
347.644	284.08
348.096	302.81
348.548	300.47
349	295.79
349.452	330.89
349.904	291.1
350.356	309.83
350.808	354.3
351.26	309.83
351.711	347.28
352.163	302.81
352.615	340.26
353.066	354.3
353.518	307.49
353.969	349.62
354.421	361.32
354.872	333.23
355.324	349.62
355.775	279.4
356.226	342.6
356.677	356.64
357.128	314.51
357.579	295.79
358.03	340.26
358.481	323.87
358.932	312.17
359.383	333.23
359.834	286.42
360.285	394.09
360.735	291.1
361.186	342.6
361.637	370.68
362.087	309.83
362.538	288.76
362.988	302.81
363.438	337.91
363.889	286.42
364.339	335.57
364.789	288.76
365.239	305.15
365.689	363.66
366.139	342.6
366.589	326.21
367.039	363.66
367.489	323.87
367.939	307.49
368.389	361.32
368.839	302.81
369.288	302.81
369.738	333.23
370.187	316.85
370.637	309.83
371.086	267.7
371.536	300.47
371.985	389.41
372.434	373.02
372.884	284.08
373.333	305.15
373.782	335.57
374.231	328.55
374.68	330.89
375.129	286.42
375.578	342.6
376.027	326.21
376.475	270.04
376.924	333.23
377.373	351.96
377.822	258.34
378.27	354.3
378.719	321.53
379.167	337.91
379.616	305.15
380.064	356.64
380.512	335.57
380.961	295.79
381.409	284.08
381.857	309.83
382.305	270.04
382.753	279.4
383.201	286.42
383.649	277.06
384.097	373.02
384.545	349.62
384.992	260.68
385.44	337.91
385.888	337.91
386.335	344.94
386.783	267.7
387.231	344.94
387.678	260.68
388.125	316.85
388.573	330.89
389.02	328.55
389.467	373.02
389.914	298.13
390.362	349.62
390.809	351.96
391.256	298.13
391.703	312.17
392.15	335.57
392.596	347.28
393.043	375.36
393.49	326.21
393.937	305.15
394.383	358.98
394.83	354.3
395.276	265.36
395.723	260.68
396.169	314.51
396.616	309.83
397.062	330.89
397.508	267.7
397.954	335.57
398.401	281.74
398.847	312.17
399.293	361.32
399.739	281.74
400.185	335.57
400.631	326.21
401.076	239.61
401.522	370.68
401.968	335.57
402.414	349.62
402.859	316.85
403.305	389.41
403.75	347.28
404.196	335.57
404.641	305.15
405.086	358.98
405.532	337.91
405.977	354.3
406.422	270.04
406.867	328.55
407.312	323.87
407.757	330.89
408.202	298.13
408.647	368.34
409.092	298.13
409.537	305.15
409.982	328.55
410.426	335.57
410.871	309.83
411.316	344.94
411.76	342.6
412.205	312.17
412.649	270.04
413.093	344.94
413.538	363.66
413.982	295.79
414.426	314.51
414.87	363.66
415.314	293.44
415.758	279.4
416.202	272.38
416.646	314.51
417.09	335.57
417.534	375.36
417.978	368.34
418.421	349.62
418.865	272.38
419.309	373.02
419.752	316.85
420.196	314.51
420.639	281.74
421.083	312.17
421.526	251.32
421.969	354.3
422.412	305.15
422.856	270.04
423.299	319.19
423.742	279.4
424.185	335.57
424.628	370.68
425.071	293.44
425.513	316.85
425.956	330.89
426.399	321.53
426.842	258.34
427.284	361.32
427.727	265.36
428.169	394.09
428.612	305.15
429.054	319.19
429.497	319.19
429.939	337.91
430.381	302.81
430.823	394.09
431.265	307.49
431.707	330.89
432.149	321.53
432.591	277.06
433.033	330.89
433.475	307.49
433.917	314.51
434.359	309.83
434.8	309.83
435.242	295.79
435.684	302.81
436.125	370.68
436.567	326.21
437.008	293.44
437.449	398.77
437.891	309.83
438.332	370.68
438.773	223.23
439.214	314.51
439.656	319.19
440.097	326.21
440.538	323.87
440.978	227.91
441.419	323.87
441.86	288.76
442.301	307.49
442.742	305.15
443.182	281.74
443.623	305.15
444.063	344.94
444.504	302.81
444.944	370.68
445.385	279.4
445.825	244.29
446.265	335.57
446.706	305.15
447.146	314.51
447.586	321.53
448.026	284.08
448.466	326.21
448.906	281.74
449.346	319.19
449.786	314.51
450.225	333.23
450.665	335.57
451.105	298.13
451.544	363.66
451.984	337.91
452.424	333.23
452.863	312.17
453.302	270.04
453.742	307.49
454.181	316.85
454.62	323.87
455.059	342.6
455.499	382.39
455.938	307.49
456.377	344.94
456.816	337.91
457.254	337.91
457.693	330.89
458.132	344.94
458.571	279.4
459.01	298.13
459.448	316.85
459.887	366
460.325	321.53
460.764	335.57
461.202	344.94
461.641	368.34
462.079	298.13
462.517	300.47
462.955	302.81
463.393	307.49
463.832	281.74
464.27	335.57
464.708	298.13
465.145	305.15
465.583	288.76
466.021	316.85
466.459	330.89
466.897	377.7
467.334	291.1
467.772	302.81
468.209	340.26
468.647	263.02
469.084	267.7
469.522	340.26
469.959	337.91
470.396	323.87
470.833	302.81
471.271	342.6
471.708	333.23
472.145	302.81
472.582	323.87
473.019	323.87
473.456	361.32
473.892	366
474.329	342.6
474.766	375.36
475.202	342.6
475.639	305.15
476.076	265.36
476.512	337.91
476.949	312.17
477.385	323.87
477.821	267.7
478.258	361.32
478.694	321.53
479.13	267.7
479.566	314.51
480.002	342.6
480.438	314.51
480.874	337.91
481.31	295.79
481.746	398.77
482.181	351.96
482.617	361.32
483.053	340.26
483.488	300.47
483.924	314.51
484.36	384.73
484.795	319.19
485.23	323.87
485.666	401.11
486.101	319.19
486.536	387.07
486.971	302.81
487.407	347.28
487.842	321.53
488.277	293.44
488.712	314.51
489.146	314.51
489.581	312.17
490.016	314.51
490.451	319.19
490.885	305.15
491.32	314.51
491.755	356.64
492.189	333.23
492.624	358.98
493.058	309.83
493.492	380.04
493.927	307.49
494.361	295.79
494.795	333.23
495.229	312.17
495.663	323.87
496.097	321.53
496.531	328.55
496.965	342.6
497.399	314.51
497.833	351.96
498.266	291.1
498.7	265.36
499.134	277.06
499.567	295.79
500.001	309.83
500.434	358.98
500.868	305.15
501.301	333.23
501.734	342.6
502.168	312.17
502.601	351.96
503.034	323.87
503.467	291.1
503.9	300.47
504.333	370.68
504.766	300.47
505.199	333.23
505.632	368.34
506.064	298.13
506.497	342.6
506.93	293.44
507.362	300.47
507.795	300.47
508.227	265.36
508.66	342.6
509.092	347.28
509.524	363.66
509.956	340.26
510.389	286.42
510.821	319.19
511.253	293.44
511.685	218.55
512.117	323.87
512.549	305.15
512.981	354.3
513.412	319.19
513.844	323.87
514.276	361.32
514.707	300.47
515.139	330.89
515.571	312.17
516.002	248.97
516.433	305.15
516.865	312.17
517.296	309.83
517.727	248.97
518.159	366
518.59	333.23
519.021	281.74
519.452	358.98
519.883	328.55
520.314	321.53
520.744	258.34
521.175	274.72
521.606	347.28
522.037	312.17
522.467	375.36
522.898	309.83
523.328	342.6
523.759	326.21
524.189	267.7
524.62	377.7
525.05	358.98
525.48	300.47
525.91	293.44
526.341	333.23
526.771	272.38
527.201	314.51
527.631	298.13
528.061	347.28
528.49	272.38
528.92	260.68
529.35	291.1
529.78	298.13
530.209	330.89
530.639	335.57
531.068	298.13
531.498	321.53
531.927	344.94
532.357	277.06
532.786	330.89
533.215	321.53
533.644	347.28
534.074	274.72
534.503	337.91
534.932	309.83
535.361	314.51
535.79	312.17
536.218	277.06
536.647	321.53
537.076	326.21
537.505	314.51
537.933	309.83
538.362	370.68
538.79	342.6
539.219	340.26
539.647	309.83
540.076	312.17
540.504	361.32
540.932	295.79
541.36	305.15
541.788	279.4
542.217	351.96
542.645	309.83
543.073	309.83
543.5	267.7
543.928	344.94
544.356	277.06
544.784	256
545.211	335.57
545.639	328.55
546.067	293.44
546.494	384.73
546.922	361.32
547.349	326.21
547.776	298.13
548.204	267.7
548.631	354.3
549.058	291.1
549.485	340.26
549.912	312.17
550.339	300.47
550.766	302.81
551.193	326.21
551.62	305.15
552.047	300.47
552.474	321.53
552.9	277.06
553.327	321.53
553.754	291.1
554.18	396.43
554.607	314.51
555.033	319.19
555.459	323.87
555.886	284.08
556.312	319.19
556.738	253.66
557.164	284.08
557.59	305.15
558.016	380.04
558.442	274.72
558.868	330.89
559.294	319.19
559.72	323.87
560.145	267.7
560.571	309.83
560.997	337.91
561.422	335.57
561.848	319.19
562.273	305.15
562.699	326.21
563.124	363.66
563.549	368.34
563.974	302.81
564.4	333.23
564.825	312.17
565.25	330.89
565.675	286.42
566.1	347.28
566.525	351.96
566.95	300.47
567.374	319.19
567.799	295.79
568.224	340.26
568.648	347.28
569.073	312.17
569.497	349.62
569.922	323.87
570.346	337.91
570.771	326.21
571.195	342.6
571.619	300.47
572.043	333.23
572.467	284.08
572.891	349.62
573.315	300.47
573.739	298.13
574.163	248.97
574.587	333.23
575.011	305.15
575.435	288.76
575.858	284.08
576.282	291.1
576.705	333.23
577.129	258.34
577.552	260.68
577.976	286.42
578.399	349.62
578.822	342.6
579.245	347.28
579.669	363.66
580.092	328.55
580.515	361.32
580.938	333.23
581.361	326.21
581.784	321.53
582.206	344.94
582.629	319.19
583.052	319.19
583.474	377.7
583.897	337.91
584.32	316.85
584.742	288.76
585.165	302.81
585.587	281.74
586.009	344.94
586.431	237.27
586.854	340.26
587.276	305.15
587.698	293.44
588.12	288.76
588.542	309.83
588.964	337.91
589.386	347.28
589.807	300.47
590.229	307.49
590.651	321.53
591.073	340.26
591.494	316.85
591.916	358.98
592.337	316.85
592.759	319.19
593.18	351.96
593.601	293.44
594.022	347.28
594.444	307.49
594.865	265.36
595.286	323.87
595.707	342.6
596.128	270.04
596.549	326.21
596.97	277.06
597.39	300.47
597.811	337.91
598.232	307.49
598.652	284.08
599.073	342.6
599.494	312.17
599.914	335.57
600.334	335.57
600.755	258.34
601.175	220.89
601.595	337.91
602.015	368.34
602.436	312.17
602.856	394.09
603.276	277.06
603.696	363.66
604.115	305.15
604.535	291.1
604.955	326.21
605.375	309.83
605.794	344.94
606.214	408.13
606.634	340.26
607.053	340.26
607.473	326.21
607.892	316.85
608.311	337.91
608.731	319.19
609.15	347.28
609.569	316.85
609.988	312.17
610.407	326.21
610.826	312.17
611.245	387.07
611.664	321.53
612.083	370.68
612.501	312.17
612.92	291.1
613.339	281.74
613.757	319.19
614.176	323.87
614.594	300.47
615.013	265.36
615.431	307.49
615.85	326.21
616.268	291.1
616.686	335.57
617.104	291.1
617.522	335.57
617.94	377.7
618.358	330.89
618.776	274.72
619.194	326.21
619.612	358.98
620.03	337.91
620.447	351.96
620.865	309.83
621.282	377.7
621.7	267.7
622.117	307.49
622.535	337.91
622.952	307.49
623.369	300.47
623.787	258.34
624.204	344.94
624.621	344.94
625.038	312.17
625.455	279.4
625.872	323.87
626.289	321.53
626.706	293.44
627.123	309.83
627.539	251.32
627.956	309.83
628.373	309.83
628.789	342.6
629.206	326.21
629.622	298.13
630.038	288.76
630.455	335.57
630.871	380.04
631.287	340.26
631.703	316.85
632.12	363.66
632.536	368.34
632.952	328.55
633.368	286.42
633.783	349.62
634.199	302.81
634.615	305.15
635.031	326.21
635.446	323.87
635.862	337.91
636.277	319.19
636.693	375.36
637.108	270.04
637.524	323.87
637.939	270.04
638.354	330.89
638.77	293.44
639.185	344.94
639.6	295.79
640.015	326.21
640.43	291.1
640.845	286.42
641.259	307.49
641.674	342.6
642.089	293.44
642.504	270.04
642.918	398.77
643.333	335.57
643.747	295.79
644.162	366
644.576	358.98
644.991	328.55
645.405	246.63
645.819	309.83
646.233	330.89
646.647	319.19
647.061	284.08
647.475	309.83
647.889	274.72
648.303	305.15
648.717	340.26
649.131	337.91
649.545	293.44
649.958	267.7
650.372	351.96
650.785	319.19
651.199	321.53
651.612	314.51
652.026	295.79
652.439	337.91
652.852	382.39
653.266	319.19
653.679	300.47
654.092	272.38
654.505	382.39
654.918	344.94
655.331	298.13
655.744	316.85
656.156	447.92
656.569	307.49
656.982	344.94
657.394	312.17
657.807	344.94
658.22	326.21
658.632	321.53
659.044	340.26
659.457	291.1
659.869	382.39
660.281	321.53
660.693	380.04
661.106	347.28
661.518	316.85
661.93	307.49
662.342	281.74
662.754	333.23
663.165	358.98
663.577	293.44
663.989	321.53
664.401	340.26
664.812	314.51
665.224	351.96
665.635	323.87
666.047	361.32
666.458	347.28
666.869	295.79
667.281	323.87
667.692	314.51
668.103	300.47
668.514	302.81
668.925	281.74
669.336	342.6
669.747	337.91
670.158	293.44
670.569	291.1
670.979	288.76
671.39	286.42
671.801	326.21
672.211	300.47
672.622	288.76
673.032	377.7
673.443	342.6
673.853	330.89
674.263	377.7
674.674	312.17
675.084	351.96
675.494	281.74
675.904	408.13
676.314	314.51
676.724	347.28
677.134	328.55
677.544	293.44
677.953	291.1
678.363	366
678.773	335.57
679.182	307.49
679.592	347.28
680.001	368.34
680.411	227.91
680.82	340.26
681.23	321.53
681.639	344.94
682.048	328.55
682.457	375.36
682.866	309.83
683.275	361.32
683.684	330.89
684.093	349.62
684.502	288.76
684.911	340.26
685.32	323.87
685.728	342.6
686.137	291.1
686.546	321.53
686.954	277.06
687.363	342.6
687.771	319.19
688.179	330.89
688.588	314.51
688.996	366
689.404	272.38
689.812	354.3
690.22	277.06
690.628	300.47
691.036	288.76
691.444	335.57
691.852	265.36
692.26	366
692.667	363.66
693.075	316.85
693.483	270.04
693.89	314.51
694.298	302.81
694.705	354.3
695.112	344.94
695.52	312.17
695.927	305.15
696.334	356.64
696.741	307.49
697.148	330.89
697.555	267.7
697.962	323.87
698.369	260.68
698.776	307.49
699.183	319.19
699.59	286.42
699.996	333.23
700.403	316.85
700.81	307.49
701.216	321.53
701.623	351.96
702.029	319.19
702.435	312.17
702.842	270.04
703.248	328.55
703.654	314.51
704.06	288.76
704.466	380.04
704.872	307.49
705.278	302.81
705.684	394.09
706.09	265.36
706.496	272.38
706.901	316.85
707.307	366
707.712	391.75
708.118	300.47
708.523	344.94
708.929	354.3
709.334	340.26
709.74	335.57
710.145	274.72
710.55	270.04
710.955	302.81
711.36	295.79
711.765	298.13
712.17	305.15
712.575	321.53
712.98	782.62
713.385	291.1
713.789	363.66
714.194	319.19
714.599	337.91
715.003	375.36
715.408	316.85
715.812	302.81
716.217	354.3
716.621	237.27
717.025	312.17
717.429	302.81
717.833	351.96
718.238	298.13
718.642	333.23
719.046	225.57
719.449	319.19
719.853	347.28
720.257	340.26
720.661	305.15
721.065	302.81
721.468	312.17
721.872	335.57
722.275	291.1
722.679	291.1
723.082	319.19
723.485	248.97
723.889	321.53
724.292	321.53
724.695	288.76
725.098	330.89
725.501	328.55
725.904	389.41
726.307	272.38
726.71	358.98
727.113	319.19
727.516	265.36
727.918	300.47
728.321	256
728.724	319.19
729.126	326.21
729.529	347.28
729.931	279.4
730.333	380.04
730.736	354.3
731.138	288.76
731.54	344.94
731.942	312.17
732.344	356.64
732.746	307.49
733.148	279.4
733.55	344.94
733.952	314.51
734.354	279.4
734.756	335.57
735.157	298.13
735.559	307.49
735.96	347.28
736.362	279.4
736.763	344.94
737.165	279.4
737.566	344.94
737.967	330.89
738.368	335.57
738.77	293.44
739.171	326.21
739.572	274.72
739.973	351.96
740.374	335.57
740.774	347.28
741.175	368.34
741.576	323.87
741.977	300.47
742.377	358.98
742.778	316.85
743.178	258.34
743.579	305.15
743.979	307.49
744.379	258.34
744.78	321.53
745.18	314.51
745.58	295.79
745.98	256
746.38	295.79
746.78	328.55
747.18	286.42
747.58	328.55
747.98	309.83
748.38	375.36
748.779	358.98
749.179	295.79
749.578	241.95
749.978	284.08
750.377	335.57
750.777	314.51
751.176	333.23
751.575	344.94
751.975	328.55
752.374	284.08
752.773	277.06
753.172	305.15
753.571	284.08
753.97	316.85
754.369	314.51
754.768	277.06
755.166	323.87
755.565	309.83
755.964	330.89
756.362	309.83
756.761	323.87
757.159	309.83
757.558	298.13
757.956	356.64
758.354	358.98
758.753	323.87
759.151	373.02
759.549	288.76
759.947	330.89
760.345	361.32
760.743	328.55
761.141	321.53
761.539	288.76
761.936	328.55
762.334	295.79
762.732	279.4
763.129	333.23
763.527	293.44
763.924	335.57
764.322	319.19
764.719	293.44
765.117	309.83
765.514	291.1
765.911	288.76
766.308	246.63
766.705	356.64
767.102	354.3
767.499	354.3
767.896	340.26
768.293	309.83
768.69	368.34
769.086	316.85
769.483	330.89
769.88	295.79
770.276	382.39
770.673	314.51
771.069	340.26
771.466	239.61
771.862	337.91
772.258	274.72
772.654	286.42
773.05	291.1
773.447	305.15
773.843	265.36
774.239	342.6
774.634	281.74
775.03	251.32
775.426	277.06
775.822	295.79
776.218	328.55
776.613	326.21
777.009	321.53
777.404	281.74
777.8	328.55
778.195	401.11
778.59	368.34
778.986	342.6
779.381	265.36
779.776	274.72
780.171	335.57
780.566	328.55
780.961	305.15
781.356	333.23
781.751	305.15
782.146	237.27
782.54	302.81
782.935	300.47
783.33	319.19
783.724	300.47
784.119	267.7
784.513	394.09
784.908	302.81
785.302	298.13
785.696	274.72
786.09	361.32
786.485	321.53
786.879	309.83
787.273	363.66
787.667	328.55
788.061	337.91
788.454	333.23
788.848	335.57
789.242	344.94
789.636	312.17
790.029	326.21
790.423	337.91
790.816	274.72
791.21	312.17
791.603	300.47
791.997	335.57
792.39	363.66
792.783	291.1
793.176	239.61
793.569	354.3
793.962	326.21
794.355	270.04
794.748	293.44
795.141	281.74
795.534	298.13
795.927	344.94
796.319	298.13
796.712	305.15
797.105	354.3
797.497	368.34
797.89	274.72
798.282	340.26
798.674	258.34
799.067	396.43
799.459	323.87
799.851	309.83
800.243	277.06
800.635	309.83
801.027	291.1
801.419	211.53
801.811	307.49
802.203	351.96
802.594	358.98
802.986	298.13
803.378	281.74
803.769	302.81
804.161	370.68
804.552	300.47
804.944	358.98
805.335	344.94
805.726	342.6
806.118	281.74
806.509	265.36
806.9	281.74
807.291	321.53
807.682	286.42
808.073	340.26
808.464	291.1
808.855	340.26
809.245	319.19
809.636	295.79
810.027	351.96
810.417	312.17
810.808	319.19
811.198	312.17
811.589	314.51
811.979	384.73
812.369	286.42
812.759	307.49
813.15	305.15
813.54	323.87
813.93	298.13
814.32	272.38
814.71	298.13
815.1	309.83
815.489	384.73
815.879	344.94
816.269	340.26
816.658	260.68
817.048	288.76
817.438	321.53
817.827	335.57
818.216	272.38
818.606	256
818.995	307.49
819.384	309.83
819.773	358.98
820.163	349.62
820.552	323.87
820.941	396.43
821.33	316.85
821.718	225.57
822.107	323.87
822.496	305.15
822.885	272.38
823.273	288.76
823.662	312.17
824.05	295.79
824.439	286.42
824.827	316.85
825.216	321.53
825.604	305.15
825.992	267.7
826.38	314.51
826.768	321.53
827.156	286.42
827.544	305.15
827.932	323.87
828.32	314.51
828.708	272.38
829.096	300.47
829.483	351.96
829.871	328.55
830.259	319.19
830.646	256
831.034	279.4
831.421	361.32
831.808	298.13
832.196	293.44
832.583	281.74
832.97	335.57
833.357	309.83
833.744	265.36
834.131	286.42
834.518	316.85
834.905	265.36
835.292	265.36
835.678	295.79
836.065	239.61
836.452	330.89
836.838	305.15
837.225	225.57
837.611	337.91
837.998	323.87
838.384	314.51
838.77	323.87
839.157	293.44
839.543	321.53
839.929	272.38
840.315	356.64
840.701	319.19
841.087	291.1
841.473	314.51
841.858	270.04
842.244	298.13
842.63	279.4
843.015	349.62
843.401	557.93
843.787	284.08
844.172	363.66
844.557	265.36
844.943	286.42
845.328	286.42
845.713	300.47
846.098	326.21
846.483	286.42
846.868	253.66
847.253	244.29
847.638	265.36
848.023	312.17
848.408	337.91
848.793	316.85
849.177	326.21
849.562	342.6
849.947	291.1
850.331	274.72
850.715	312.17
851.1	363.66
851.484	375.36
851.868	335.57
852.253	356.64
852.637	263.02
853.021	284.08
853.405	321.53
853.789	326.21
854.173	279.4
854.557	391.75
854.94	314.51
855.324	342.6
855.708	302.81
856.091	237.27
856.475	316.85
856.858	323.87
857.242	300.47
857.625	319.19
858.009	347.28
858.392	377.7
858.775	319.19
859.158	293.44
859.541	330.89
859.924	326.21
860.307	281.74
860.69	321.53
861.073	342.6
861.456	328.55
861.838	344.94
862.221	312.17
862.604	309.83
862.986	309.83
863.369	279.4
863.751	354.3
864.133	300.47
864.516	321.53
864.898	288.76
865.28	349.62
865.662	298.13
866.044	312.17
866.426	263.02
866.808	307.49
867.19	295.79
867.572	354.3
867.954	239.61
868.336	358.98
868.717	279.4
869.099	286.42
869.48	316.85
869.862	333.23
870.243	356.64
870.625	340.26
871.006	351.96
871.387	246.63
871.768	281.74
872.149	293.44
872.53	305.15
872.911	300.47
873.292	361.32
873.673	373.02
874.054	300.47
874.435	319.19
874.815	326.21
875.196	305.15
875.577	349.62
875.957	293.44
876.338	326.21
876.718	302.81
877.098	295.79
877.479	314.51
877.859	263.02
878.239	335.57
878.619	319.19
878.999	281.74
879.379	314.51
879.759	326.21
880.139	279.4
880.519	377.7
880.898	274.72
881.278	333.23
881.658	302.81
882.037	335.57
882.417	333.23
882.796	300.47
883.176	258.34
883.555	347.28
883.934	326.21
884.313	291.1
884.693	326.21
885.072	314.51
885.451	330.89
885.83	326.21
886.209	251.32
886.587	279.4
886.966	384.73
887.345	323.87
887.724	335.57
888.102	274.72
888.481	274.72
888.859	274.72
889.238	291.1
889.616	382.39
889.994	314.51
890.373	337.91
890.751	248.97
891.129	251.32
891.507	298.13
891.885	281.74
892.263	312.17
892.641	281.74
893.019	368.34
893.396	279.4
893.774	344.94
894.152	342.6
894.529	298.13
894.907	328.55
895.284	312.17
895.662	260.68
896.039	305.15
896.416	279.4
896.794	265.36
897.171	300.47
897.548	354.3
897.925	300.47
898.302	284.08
898.679	277.06
899.056	241.95
899.433	307.49
899.809	293.44
900.186	263.02
900.563	347.28
900.939	284.08
901.316	326.21
901.692	300.47
902.069	293.44
902.445	246.63
902.821	314.51
903.197	284.08
903.574	293.44
903.95	333.23
904.326	356.64
904.702	394.09
905.078	319.19
905.454	319.19
905.829	286.42
906.205	316.85
906.581	288.76
906.956	270.04
907.332	358.98
907.707	309.83
908.083	302.81
908.458	265.36
908.833	312.17
909.209	286.42
909.584	321.53
909.959	305.15
910.334	286.42
910.709	300.47
911.084	328.55
911.459	305.15
911.834	351.96
912.209	277.06
912.583	298.13
912.958	288.76
913.333	281.74
913.707	314.51
914.082	272.38
914.456	302.81
914.83	312.17
915.205	354.3
915.579	328.55
915.953	330.89
916.327	281.74
916.701	351.96
917.075	316.85
917.449	302.81
917.823	314.51
918.197	321.53
918.571	323.87
918.944	288.76
919.318	356.64
919.692	314.51
920.065	300.47
920.438	328.55
920.812	270.04
921.185	288.76
921.558	347.28
921.932	373.02
922.305	349.62
922.678	316.85
923.051	256
923.424	284.08
923.797	335.57
924.17	342.6
924.542	349.62
924.915	347.28
925.288	291.1
925.661	298.13
926.033	351.96
926.406	291.1
926.778	293.44
927.15	251.32
927.523	344.94
927.895	286.42
928.267	330.89
928.639	351.96
929.011	344.94
929.383	349.62
929.755	286.42
930.127	277.06
930.499	328.55
930.871	340.26
931.242	337.91
931.614	286.42
931.986	295.79
932.357	274.72
932.729	323.87
933.1	284.08
933.471	337.91
933.843	337.91
934.214	291.1
934.585	333.23
934.956	244.29
935.327	316.85
935.698	256
936.069	293.44
936.44	375.36
936.811	298.13
937.182	316.85
937.552	323.87
937.923	277.06
938.293	260.68
938.664	391.75
939.034	256
939.405	366
939.775	328.55
940.145	340.26
940.516	279.4
940.886	286.42
941.256	312.17
941.626	316.85
941.996	272.38
942.366	298.13
942.735	291.1
943.105	323.87
943.475	274.72
943.845	312.17
944.214	335.57
944.584	330.89
944.953	291.1
945.323	300.47
945.692	300.47
946.061	344.94
946.43	305.15
946.8	326.21
947.169	293.44
947.538	312.17
947.907	349.62
948.276	333.23
948.645	349.62
949.013	347.28
949.382	267.7
949.751	333.23
950.119	375.36
950.488	319.19
950.857	284.08
951.225	309.83
951.593	291.1
951.962	326.21
952.33	288.76
952.698	277.06
953.066	307.49
953.434	340.26
953.802	307.49
954.17	302.81
954.538	319.19
954.906	302.81
955.274	216.21
955.642	312.17
956.009	337.91
956.377	274.72
956.744	361.32
957.112	326.21
957.479	351.96
957.847	237.27
958.214	323.87
958.581	272.38
958.948	368.34
959.315	380.04
959.683	314.51
960.05	309.83
960.416	340.26
960.783	291.1
961.15	314.51
961.517	309.83
961.884	316.85
962.25	356.64
962.617	298.13
962.983	347.28
963.35	344.94
963.716	326.21
964.082	335.57
964.449	298.13
964.815	302.81
965.181	284.08
965.547	368.34
965.913	321.53
966.279	270.04
966.645	375.36
967.011	342.6
967.377	333.23
967.742	309.83
968.108	391.75
968.474	340.26
968.839	244.29
969.205	337.91
969.57	326.21
969.935	321.53
970.301	328.55
970.666	302.81
971.031	274.72
971.396	312.17
971.761	351.96
972.126	330.89
972.491	277.06
972.856	319.19
973.221	244.29
973.586	291.1
973.95	286.42
974.315	375.36
974.679	335.57
975.044	312.17
975.408	373.02
975.773	351.96
976.137	288.76
976.501	293.44
976.866	277.06
977.23	293.44
977.594	366
977.958	288.76
978.322	333.23
978.686	347.28
979.049	267.7
979.413	298.13
979.777	321.53
980.141	305.15
980.504	321.53
980.868	319.19
981.231	373.02
981.595	272.38
981.958	291.1
982.321	342.6
982.684	340.26
983.048	321.53
983.411	330.89
983.774	260.68
984.137	337.91
984.5	309.83
984.862	295.79
985.225	319.19
985.588	391.75
985.951	270.04
986.313	302.81
986.676	183.44
987.038	270.04
987.401	326.21
987.763	307.49
988.125	361.32
988.488	319.19
988.85	363.66
989.212	260.68
989.574	260.68
989.936	342.6
990.298	195.14
990.66	344.94
991.022	260.68
991.383	312.17
991.745	263.02
992.107	279.4
992.468	316.85
992.83	316.85
993.191	286.42
993.553	237.27
993.914	344.94
994.275	363.66
994.637	354.3
994.998	305.15
995.359	281.74
995.72	241.95
996.081	344.94
996.442	340.26
996.803	323.87
997.163	270.04
997.524	302.81
997.885	307.49
998.245	314.51
998.606	295.79
998.966	335.57
999.327	281.74
999.687	368.34
1000.047	342.6
1000.408	328.55
1000.768	293.44
1001.128	326.21
1001.488	319.19
1001.848	277.06
1002.208	344.94
1002.568	309.83
1002.927	307.49
1003.287	349.62
1003.647	323.87
1004.007	326.21
1004.366	260.68
1004.726	335.57
1005.085	305.15
1005.444	361.32
1005.804	307.49
1006.163	307.49
1006.522	340.26
1006.881	286.42
1007.24	225.57
1007.599	284.08
1007.958	316.85
1008.317	295.79
1008.676	239.61
1009.035	307.49
1009.393	342.6
1009.752	227.91
1010.111	323.87
1010.469	277.06
1010.828	288.76
1011.186	244.29
1011.544	347.28
1011.903	389.41
1012.261	309.83
1012.619	307.49
1012.977	344.94
1013.335	288.76
1013.693	295.79
1014.051	344.94
1014.409	349.62
1014.767	288.76
1015.124	293.44
1015.482	305.15
1015.84	316.85
1016.197	328.55
1016.555	302.81
1016.912	333.23
1017.269	267.7
1017.627	293.44
1017.984	307.49
1018.341	305.15
1018.698	309.83
1019.055	253.66
1019.412	281.74
1019.769	316.85
1020.126	333.23
1020.483	284.08
1020.84	260.68
1021.196	302.81
1021.553	298.13
1021.909	305.15
1022.266	291.1
1022.622	326.21
1022.979	319.19
1023.335	302.81
1023.691	323.87
1024.047	251.32
1024.404	284.08
1024.76	279.4
1025.116	244.29
1025.472	286.42
1025.827	335.57
1026.183	314.51
1026.539	251.32
1026.895	293.44
1027.25	281.74
1027.606	293.44
1027.961	272.38
1028.317	335.57
1028.672	323.87
1029.028	256
1029.383	328.55
1029.738	316.85
1030.093	260.68
1030.448	333.23
1030.803	337.91
1031.158	288.76
1031.513	279.4
1031.868	330.89
1032.223	305.15
1032.577	298.13
1032.932	302.81
1033.287	302.81
1033.641	314.51
1033.996	300.47
1034.35	316.85
1034.704	300.47
1035.059	319.19
1035.413	291.1
1035.767	291.1
1036.121	291.1
