Data from Al_FLMS009871__885__16-17-03-625.txt Node

Date: Fri Mar 08 16:17:03 CST 2024
User: pe5414po
Spectrometer: FLMS00987
Trigger mode: 0
Integration Time (sec): 1.000000E-1
Scans to average: 1
Electric dark correction enabled: true
Nonlinearity correction enabled: false
Boxcar width: 0
XAxis mode: Wavelengths
Number of Pixels in Spectrum: 2048
>>>>>Begin Spectral Data<<<<<
188.938	-128.14
189.409	-128.14
189.879	-128.14
190.349	-151.55
190.819	-109.42
191.29	-83.67
191.76	-123.46
192.23	-111.76
192.7	-104.74
193.17	-13.46
193.64	-93.04
194.109	-62.61
194.579	-27.5
195.049	31.01
195.519	-15.8
195.988	23.99
196.458	98.89
196.927	94.21
197.397	66.12
197.866	136.34
198.336	185.49
198.805	105.91
199.274	136.34
199.744	108.25
200.213	162.08
200.682	152.72
201.151	187.83
201.62	232.3
202.089	213.57
202.558	220.6
203.027	234.64
203.495	267.41
203.964	260.38
204.433	190.17
204.902	293.15
205.37	276.77
205.839	269.75
206.307	208.89
206.776	281.45
207.244	183.15
207.712	283.79
208.181	307.2
208.649	300.17
209.117	276.77
209.585	279.11
210.053	229.96
210.521	269.75
210.989	281.45
211.457	255.7
211.925	330.6
212.393	246.34
212.861	302.51
213.328	281.45
213.796	229.96
214.264	267.41
214.731	304.85
215.199	253.36
215.666	276.77
216.133	311.88
216.601	232.3
217.068	246.34
217.535	286.13
218.003	204.21
218.47	253.36
218.937	265.07
219.404	253.36
219.871	269.75
220.338	255.7
220.805	267.41
221.271	253.36
221.738	262.73
222.205	255.7
222.671	304.85
223.138	288.47
223.605	211.23
224.071	253.36
224.538	309.54
225.004	208.89
225.47	208.89
225.937	213.57
226.403	262.73
226.869	253.36
227.335	244
227.801	253.36
228.267	222.94
228.733	248.68
229.199	234.64
229.665	197.19
230.131	244
230.597	288.47
231.062	255.7
231.528	290.81
231.994	267.41
232.459	337.62
232.925	283.79
233.39	225.28
233.856	234.64
234.321	265.07
234.786	234.64
235.252	328.26
235.717	286.13
236.182	281.45
236.647	267.41
237.112	286.13
237.577	234.64
238.042	232.3
238.507	272.09
238.972	293.15
239.436	241.66
239.901	262.73
240.366	218.25
240.83	309.54
241.295	229.96
241.76	279.11
242.224	295.49
242.688	248.68
243.153	258.04
243.617	265.07
244.081	241.66
244.545	241.66
245.01	260.38
245.474	269.75
245.938	244
246.402	279.11
246.866	255.7
247.33	279.11
247.793	260.38
248.257	248.68
248.721	218.25
249.185	239.32
249.648	241.66
250.112	269.75
250.575	269.75
251.039	309.54
251.502	283.79
251.965	255.7
252.429	255.7
252.892	222.94
253.355	267.41
253.818	169.1
254.281	267.41
254.744	304.85
255.207	274.43
255.67	297.83
256.133	262.73
256.596	251.02
257.059	208.89
257.522	244
257.984	297.83
258.447	215.91
258.909	330.6
259.372	267.41
259.834	276.77
260.297	246.34
260.759	295.49
261.221	244
261.684	283.79
262.146	302.51
262.608	314.22
263.07	283.79
263.532	262.73
263.994	361.03
264.456	295.49
264.918	213.57
265.38	323.58
265.842	258.04
266.303	339.96
266.765	302.51
267.227	236.98
267.688	222.94
268.15	241.66
268.611	276.77
269.072	304.85
269.534	267.41
269.995	311.88
270.456	260.38
270.918	307.2
271.379	293.15
271.84	269.75
272.301	281.45
272.762	321.24
273.223	269.75
273.684	276.77
274.144	316.56
274.605	234.64
275.066	281.45
275.527	241.66
275.987	297.83
276.448	274.43
276.908	262.73
277.369	253.36
277.829	302.51
278.289	274.43
278.75	234.64
279.21	229.96
279.67	286.13
280.13	215.91
280.59	239.32
281.05	267.41
281.51	288.47
281.97	279.11
282.43	300.17
282.89	279.11
283.35	241.66
283.809	302.51
284.269	246.34
284.729	300.17
285.188	227.62
285.648	222.94
286.107	318.9
286.567	295.49
287.026	309.54
287.485	309.54
287.944	260.38
288.404	276.77
288.863	288.47
289.322	215.91
289.781	281.45
290.24	297.83
290.699	251.02
291.158	325.92
291.616	281.45
292.075	295.49
292.534	330.6
292.992	269.75
293.451	307.2
293.91	267.41
294.368	293.15
294.827	300.17
295.285	251.02
295.743	302.51
296.202	288.47
296.66	253.36
297.118	328.26
297.576	222.94
298.034	276.77
298.492	255.7
298.95	309.54
299.408	272.09
299.866	283.79
300.324	307.2
300.781	309.54
301.239	300.17
301.697	309.54
302.154	314.22
302.612	246.34
303.069	262.73
303.527	342.3
303.984	272.09
304.441	274.43
304.899	272.09
305.356	211.23
305.813	260.38
306.27	328.26
306.727	253.36
307.184	276.77
307.641	232.3
308.098	302.51
308.555	258.04
309.012	272.09
309.468	283.79
309.925	279.11
310.382	300.17
310.838	288.47
311.295	286.13
311.751	262.73
312.208	283.79
312.664	220.6
313.12	297.83
313.577	241.66
314.033	248.68
314.489	276.77
314.945	236.98
315.401	265.07
315.857	274.43
316.313	232.3
316.769	293.15
317.225	286.13
317.681	244
318.136	351.67
318.592	241.66
319.048	309.54
319.503	279.11
319.959	314.22
320.414	222.94
320.869	283.79
321.325	276.77
321.78	241.66
322.235	311.88
322.691	344.64
323.146	328.26
323.601	358.69
324.056	354.01
324.511	239.32
324.966	330.6
325.421	300.17
325.875	318.9
326.33	293.15
326.785	260.38
327.24	272.09
327.694	272.09
328.149	309.54
328.603	295.49
329.058	316.56
329.512	286.13
329.966	314.22
330.421	318.9
330.875	302.51
331.329	297.83
331.783	260.38
332.237	325.92
332.691	276.77
333.145	328.26
333.599	316.56
334.053	251.02
334.507	274.43
334.96	251.02
335.414	328.26
335.868	321.24
336.321	316.56
336.775	262.73
337.228	279.11
337.682	276.77
338.135	328.26
338.588	265.07
339.042	318.9
339.495	255.7
339.948	288.47
340.401	290.81
340.854	300.17
341.307	304.85
341.76	309.54
342.213	283.79
342.666	314.22
343.119	281.45
343.571	260.38
344.024	286.13
344.477	267.41
344.929	297.83
345.382	300.17
345.834	307.2
346.287	269.75
346.739	269.75
347.191	255.7
347.644	267.41
348.096	307.2
348.548	311.88
349	349.32
349.452	332.94
349.904	293.15
350.356	325.92
350.808	267.41
351.26	258.04
351.711	316.56
352.163	314.22
352.615	297.83
353.066	269.75
353.518	330.6
353.969	260.38
354.421	274.43
354.872	325.92
355.324	330.6
355.775	201.87
356.226	316.56
356.677	300.17
357.128	330.6
357.579	295.49
358.03	307.2
358.481	372.73
358.932	318.9
359.383	304.85
359.834	279.11
360.285	283.79
360.735	279.11
361.186	272.09
361.637	297.83
362.087	251.02
362.538	304.85
362.988	288.47
363.438	318.9
363.889	260.38
364.339	265.07
364.789	293.15
365.239	339.96
365.689	309.54
366.139	307.2
366.589	267.41
367.039	272.09
367.489	314.22
367.939	281.45
368.389	293.15
368.839	255.7
369.288	258.04
369.738	279.11
370.187	304.85
370.637	276.77
371.086	290.81
371.536	265.07
371.985	279.11
372.434	293.15
372.884	251.02
373.333	309.54
373.782	332.94
374.231	311.88
374.68	314.22
375.129	274.43
375.578	258.04
376.027	358.69
376.475	365.71
376.924	307.2
377.373	239.32
377.822	358.69
378.27	361.03
378.719	262.73
379.167	349.32
379.616	321.24
380.064	328.26
380.512	279.11
380.961	309.54
381.409	300.17
381.857	304.85
382.305	304.85
382.753	321.24
383.201	281.45
383.649	356.35
384.097	283.79
384.545	274.43
384.992	253.36
385.44	384.43
385.888	300.17
386.335	295.49
386.783	304.85
387.231	318.9
387.678	295.49
388.125	332.94
388.573	246.34
389.02	297.83
389.467	337.62
389.914	316.56
390.362	283.79
390.809	342.3
391.256	307.2
391.703	286.13
392.15	283.79
392.596	267.41
393.043	358.69
393.49	283.79
393.937	260.38
394.383	267.41
394.83	297.83
395.276	286.13
395.723	248.68
396.169	274.43
396.616	255.7
397.062	288.47
397.508	307.2
397.954	297.83
398.401	323.58
398.847	295.49
399.293	311.88
399.739	283.79
400.185	311.88
400.631	330.6
401.076	288.47
401.522	309.54
401.968	318.9
402.414	295.49
402.859	290.81
403.305	316.56
403.75	267.41
404.196	318.9
404.641	293.15
405.086	286.13
405.532	307.2
405.977	311.88
406.422	272.09
406.867	323.58
407.312	321.24
407.757	330.6
408.202	370.39
408.647	323.58
409.092	293.15
409.537	309.54
409.982	346.98
410.426	316.56
410.871	349.32
411.316	314.22
411.76	286.13
412.205	351.67
412.649	316.56
413.093	234.64
413.538	297.83
413.982	279.11
414.426	283.79
414.87	297.83
415.314	337.62
415.758	316.56
416.202	246.34
416.646	323.58
417.09	325.92
417.534	286.13
417.978	316.56
418.421	309.54
418.865	260.38
419.309	246.34
419.752	283.79
420.196	283.79
420.639	258.04
421.083	293.15
421.526	351.67
421.969	318.9
422.412	276.77
422.856	311.88
423.299	361.03
423.742	279.11
424.185	295.49
424.628	279.11
425.071	346.98
425.513	293.15
425.956	302.51
426.399	293.15
426.842	316.56
427.284	309.54
427.727	276.77
428.169	356.35
428.612	342.3
429.054	302.51
429.497	370.39
429.939	283.79
430.381	206.55
430.823	288.47
431.265	300.17
431.707	330.6
432.149	300.17
432.591	262.73
433.033	302.51
433.475	304.85
433.917	290.81
434.359	295.49
434.8	300.17
435.242	328.26
435.684	293.15
436.125	361.03
436.567	311.88
437.008	332.94
437.449	281.45
437.891	328.26
438.332	330.6
438.773	318.9
439.214	321.24
439.656	206.55
440.097	295.49
440.538	276.77
440.978	229.96
441.419	229.96
441.86	346.98
442.301	354.01
442.742	288.47
443.182	302.51
443.623	260.38
444.063	300.17
444.504	311.88
444.944	316.56
445.385	244
445.825	302.51
446.265	304.85
446.706	300.17
447.146	293.15
447.586	314.22
448.026	234.64
448.466	325.92
448.906	276.77
449.346	267.41
449.786	283.79
450.225	318.9
450.665	311.88
451.105	307.2
451.544	302.51
451.984	323.58
452.424	304.85
452.863	286.13
453.302	316.56
453.742	281.45
454.181	307.2
454.62	325.92
455.059	269.75
455.499	344.64
455.938	295.49
456.377	269.75
456.816	335.28
457.254	344.64
457.693	325.92
458.132	274.43
458.571	325.92
459.01	311.88
459.448	339.96
459.887	293.15
460.325	346.98
460.764	321.24
461.202	398.48
461.641	290.81
462.079	267.41
462.517	309.54
462.955	276.77
463.393	358.69
463.832	286.13
464.27	316.56
464.708	337.62
465.145	297.83
465.583	351.67
466.021	297.83
466.459	344.64
466.897	286.13
467.334	335.28
467.772	293.15
468.209	316.56
468.647	246.34
469.084	335.28
469.522	274.43
469.959	286.13
470.396	297.83
470.833	318.9
471.271	316.56
471.708	337.62
472.145	227.62
472.582	302.51
473.019	281.45
473.456	208.89
473.892	295.49
474.329	370.39
474.766	258.04
475.202	379.75
475.639	309.54
476.076	363.37
476.512	325.92
476.949	316.56
477.385	274.43
477.821	304.85
478.258	227.62
478.694	293.15
479.13	302.51
479.566	290.81
480.002	251.02
480.438	286.13
480.874	304.85
481.31	290.81
481.746	314.22
482.181	293.15
482.617	316.56
483.053	288.47
483.488	244
483.924	274.43
484.36	290.81
484.795	335.28
485.23	321.24
485.666	351.67
486.101	361.03
486.536	309.54
486.971	339.96
487.407	332.94
487.842	339.96
488.277	260.38
488.712	318.9
489.146	323.58
489.581	302.51
490.016	328.26
490.451	302.51
490.885	234.64
491.32	325.92
491.755	337.62
492.189	337.62
492.624	323.58
493.058	314.22
493.492	265.07
493.927	290.81
494.361	337.62
494.795	316.56
495.229	330.6
495.663	323.58
496.097	276.77
496.531	244
496.965	335.28
497.399	304.85
497.833	265.07
498.266	339.96
498.7	290.81
499.134	311.88
499.567	269.75
500.001	244
500.434	314.22
500.868	309.54
501.301	276.77
501.734	288.47
502.168	229.96
502.601	302.51
503.034	286.13
503.467	349.32
503.9	293.15
504.333	377.41
504.766	342.3
505.199	246.34
505.632	267.41
506.064	267.41
506.497	258.04
506.93	297.83
507.362	323.58
507.795	339.96
508.227	311.88
508.66	335.28
509.092	349.32
509.524	288.47
509.956	262.73
510.389	309.54
510.821	255.7
511.253	239.32
511.685	396.14
512.117	300.17
512.549	286.13
512.981	365.71
513.412	325.92
513.844	318.9
514.276	300.17
514.707	316.56
515.139	337.62
515.571	325.92
516.002	346.98
516.433	239.32
516.865	288.47
517.296	337.62
517.727	302.51
518.159	323.58
518.59	325.92
519.021	311.88
519.452	262.73
519.883	332.94
520.314	274.43
520.744	227.62
521.175	332.94
521.606	314.22
522.037	344.64
522.467	314.22
522.898	290.81
523.328	302.51
523.759	344.64
524.189	288.47
524.62	307.2
525.05	328.26
525.48	318.9
525.91	302.51
526.341	251.02
526.771	354.01
527.201	253.36
527.631	295.49
528.061	309.54
528.49	297.83
528.92	321.24
529.35	323.58
529.78	297.83
530.209	314.22
530.639	307.2
531.068	272.09
531.498	293.15
531.927	279.11
532.357	293.15
532.786	311.88
533.215	314.22
533.644	300.17
534.074	330.6
534.503	365.71
534.932	328.26
535.361	330.6
535.79	337.62
536.218	300.17
536.647	286.13
537.076	304.85
537.505	290.81
537.933	309.54
538.362	281.45
538.79	302.51
539.219	297.83
539.647	300.17
540.076	258.04
540.504	281.45
540.932	318.9
541.36	232.3
541.788	314.22
542.217	363.37
542.645	342.3
543.073	361.03
543.5	260.38
543.928	330.6
544.356	288.47
544.784	279.11
545.211	354.01
545.639	335.28
546.067	318.9
546.494	265.07
546.922	297.83
547.349	283.79
547.776	302.51
548.204	351.67
548.631	300.17
549.058	232.3
549.485	244
549.912	272.09
550.339	307.2
550.766	323.58
551.193	265.07
551.62	290.81
552.047	314.22
552.474	297.83
552.9	279.11
553.327	290.81
553.754	304.85
554.18	279.11
554.607	302.51
555.033	260.38
555.459	281.45
555.886	302.51
556.312	297.83
556.738	314.22
557.164	297.83
557.59	295.49
558.016	361.03
558.442	321.24
558.868	283.79
559.294	288.47
559.72	307.2
560.145	274.43
560.571	342.3
560.997	318.9
561.422	297.83
561.848	302.51
562.273	318.9
562.699	311.88
563.124	276.77
563.549	241.66
563.974	342.3
564.4	295.49
564.825	300.17
565.25	372.73
565.675	335.28
566.1	274.43
566.525	227.62
566.95	286.13
567.374	279.11
567.799	190.17
568.224	253.36
568.648	332.94
569.073	293.15
569.497	279.11
569.922	286.13
570.346	328.26
570.771	274.43
571.195	318.9
571.619	251.02
572.043	293.15
572.467	393.8
572.891	337.62
573.315	272.09
573.739	325.92
574.163	281.45
574.587	314.22
575.011	342.3
575.435	295.49
575.858	293.15
576.282	389.11
576.705	321.24
577.129	335.28
577.552	208.89
577.976	295.49
578.399	297.83
578.822	346.98
579.245	307.2
579.669	323.58
580.092	293.15
580.515	311.88
580.938	300.17
581.361	297.83
581.784	269.75
582.206	253.36
582.629	361.03
583.052	290.81
583.474	279.11
583.897	302.51
584.32	342.3
584.742	293.15
585.165	290.81
585.587	316.56
586.009	309.54
586.431	330.6
586.854	309.54
587.276	290.81
587.698	297.83
588.12	239.32
588.542	361.03
588.964	248.68
589.386	276.77
589.807	265.07
590.229	321.24
590.651	311.88
591.073	302.51
591.494	269.75
591.916	370.39
592.337	272.09
592.759	290.81
593.18	281.45
593.601	302.51
594.022	283.79
594.444	286.13
594.865	276.77
595.286	276.77
595.707	267.41
596.128	346.98
596.549	279.11
596.97	302.51
597.39	311.88
597.811	265.07
598.232	323.58
598.652	344.64
599.073	337.62
599.494	328.26
599.914	290.81
600.334	269.75
600.755	255.7
601.175	384.43
601.595	361.03
602.015	234.64
602.436	274.43
602.856	398.48
603.276	323.58
603.696	293.15
604.115	365.71
604.535	337.62
604.955	316.56
605.375	302.51
605.794	286.13
606.214	300.17
606.634	332.94
607.053	274.43
607.473	244
607.892	293.15
608.311	286.13
608.731	255.7
609.15	300.17
609.569	262.73
609.988	248.68
610.407	307.2
610.826	276.77
611.245	323.58
611.664	276.77
612.083	325.92
612.501	302.51
612.92	316.56
613.339	246.34
613.757	255.7
614.176	293.15
614.594	304.85
615.013	330.6
615.431	365.71
615.85	272.09
616.268	244
616.686	335.28
617.104	300.17
617.522	300.17
617.94	323.58
618.358	314.22
618.776	293.15
619.194	281.45
619.612	328.26
620.03	302.51
620.447	335.28
620.865	276.77
621.282	295.49
621.7	365.71
622.117	248.68
622.535	265.07
622.952	354.01
623.369	274.43
623.787	318.9
624.204	288.47
624.621	342.3
625.038	246.34
625.455	314.22
625.872	309.54
626.289	288.47
626.706	260.38
627.123	267.41
627.539	265.07
627.956	267.41
628.373	274.43
628.789	293.15
629.206	316.56
629.622	253.36
630.038	330.6
630.455	262.73
630.871	281.45
631.287	251.02
631.703	234.64
632.12	281.45
632.536	346.98
632.952	304.85
633.368	307.2
633.783	309.54
634.199	286.13
634.615	314.22
635.031	302.51
635.446	302.51
635.862	323.58
636.277	255.7
636.693	283.79
637.108	286.13
637.524	290.81
637.939	297.83
638.354	342.3
638.77	379.75
639.185	251.02
639.6	290.81
640.015	325.92
640.43	293.15
640.845	335.28
641.259	232.3
641.674	253.36
642.089	283.79
642.504	244
642.918	307.2
643.333	260.38
643.747	267.41
644.162	258.04
644.576	281.45
644.991	297.83
645.405	279.11
645.819	260.38
646.233	260.38
646.647	342.3
647.061	330.6
647.475	251.02
647.889	302.51
648.303	288.47
648.717	302.51
649.131	304.85
649.545	283.79
649.958	244
650.372	288.47
650.785	248.68
651.199	265.07
651.612	318.9
652.026	290.81
652.439	265.07
652.852	274.43
653.266	267.41
653.679	300.17
654.092	304.85
654.505	332.94
654.918	225.28
655.331	279.11
655.744	361.03
656.156	302.51
656.569	307.2
656.982	300.17
657.394	255.7
657.807	330.6
658.22	328.26
658.632	293.15
659.044	286.13
659.457	267.41
659.869	272.09
660.281	304.85
660.693	365.71
661.106	274.43
661.518	297.83
661.93	267.41
662.342	293.15
662.754	295.49
663.165	318.9
663.577	363.37
663.989	288.47
664.401	314.22
664.812	222.94
665.224	304.85
665.635	279.11
666.047	339.96
666.458	288.47
666.869	236.98
667.281	288.47
667.692	251.02
668.103	346.98
668.514	293.15
668.925	229.96
669.336	288.47
669.747	339.96
670.158	295.49
670.569	248.68
670.979	283.79
671.39	288.47
671.801	351.67
672.211	302.51
672.622	349.32
673.032	314.22
673.443	293.15
673.853	297.83
674.263	323.58
674.674	332.94
675.084	302.51
675.494	229.96
675.904	302.51
676.314	358.69
676.724	288.47
677.134	304.85
677.544	311.88
677.953	314.22
678.363	253.36
678.773	307.2
679.182	307.2
679.592	239.32
680.001	325.92
680.411	304.85
680.82	288.47
681.23	269.75
681.639	311.88
682.048	269.75
682.457	354.01
682.866	330.6
683.275	232.3
683.684	328.26
684.093	339.96
684.502	335.28
684.911	253.36
685.32	297.83
685.728	295.49
686.137	281.45
686.546	316.56
686.954	286.13
687.363	302.51
687.771	274.43
688.179	304.85
688.588	293.15
688.996	269.75
689.404	276.77
689.812	286.13
690.22	232.3
690.628	337.62
691.036	335.28
691.444	363.37
691.852	297.83
692.26	307.2
692.667	337.62
693.075	297.83
693.483	316.56
693.89	260.38
694.298	311.88
694.705	370.39
695.112	316.56
695.52	363.37
695.927	260.38
696.334	351.67
696.741	311.88
697.148	288.47
697.555	335.28
697.962	283.79
698.369	325.92
698.776	300.17
699.183	325.92
699.59	283.79
699.996	323.58
700.403	297.83
700.81	300.17
701.216	297.83
701.623	356.35
702.029	297.83
702.435	344.64
702.842	318.9
703.248	339.96
703.654	361.03
704.06	307.2
704.466	283.79
704.872	267.41
705.278	295.49
705.684	339.96
706.09	288.47
706.496	276.77
706.901	288.47
707.307	335.28
707.712	337.62
708.118	274.43
708.523	293.15
708.929	311.88
709.334	307.2
709.74	314.22
710.145	295.49
710.55	281.45
710.955	290.81
711.36	260.38
711.765	297.83
712.17	330.6
712.575	295.49
712.98	880.63
713.385	382.09
713.789	325.92
714.194	276.77
714.599	325.92
715.003	304.85
715.408	279.11
715.812	349.32
716.217	363.37
716.621	321.24
717.025	302.51
717.429	302.51
717.833	295.49
718.238	311.88
718.642	318.9
719.046	290.81
719.449	281.45
719.853	283.79
720.257	276.77
720.661	318.9
721.065	314.22
721.468	276.77
721.872	281.45
722.275	302.51
722.679	286.13
723.082	349.32
723.485	335.28
723.889	267.41
724.292	286.13
724.695	265.07
725.098	351.67
725.501	283.79
725.904	251.02
726.307	368.05
726.71	281.45
727.113	307.2
727.516	304.85
727.918	330.6
728.321	267.41
728.724	332.94
729.126	330.6
729.529	344.64
729.931	318.9
730.333	260.38
730.736	288.47
731.138	234.64
731.54	241.66
731.942	248.68
732.344	265.07
732.746	213.57
733.148	300.17
733.55	302.51
733.952	316.56
734.354	346.98
734.756	274.43
735.157	281.45
735.559	192.51
735.96	335.28
736.362	309.54
736.763	276.77
737.165	304.85
737.566	251.02
737.967	297.83
738.368	314.22
738.77	274.43
739.171	349.32
739.572	335.28
739.973	335.28
740.374	316.56
740.774	332.94
741.175	295.49
741.576	307.2
741.977	283.79
742.377	344.64
742.778	241.66
743.178	307.2
743.579	363.37
743.979	290.81
744.379	311.88
744.78	283.79
745.18	279.11
745.58	344.64
745.98	267.41
746.38	337.62
746.78	323.58
747.18	297.83
747.58	311.88
747.98	302.51
748.38	342.3
748.779	293.15
749.179	265.07
749.578	258.04
749.978	295.49
750.377	269.75
750.777	290.81
751.176	304.85
751.575	288.47
751.975	274.43
752.374	297.83
752.773	300.17
753.172	293.15
753.571	302.51
753.97	309.54
754.369	274.43
754.768	253.36
755.166	300.17
755.565	295.49
755.964	258.04
756.362	323.58
756.761	300.17
757.159	267.41
757.558	372.73
757.956	194.85
758.354	335.28
758.753	253.36
759.151	246.34
759.549	265.07
759.947	354.01
760.345	260.38
760.743	276.77
761.141	323.58
761.539	281.45
761.936	269.75
762.334	293.15
762.732	297.83
763.129	316.56
763.527	258.04
763.924	335.28
764.322	309.54
764.719	311.88
765.117	236.98
765.514	255.7
765.911	251.02
766.308	342.3
766.705	309.54
767.102	304.85
767.499	300.17
767.896	246.34
768.293	283.79
768.69	281.45
769.086	321.24
769.483	318.9
769.88	332.94
770.276	328.26
770.673	295.49
771.069	309.54
771.466	281.45
771.862	269.75
772.258	309.54
772.654	241.66
773.05	272.09
773.447	253.36
773.843	330.6
774.239	304.85
774.634	368.05
775.03	253.36
775.426	351.67
775.822	248.68
776.218	330.6
776.613	323.58
777.009	337.62
777.404	288.47
777.8	269.75
778.195	304.85
778.59	311.88
778.986	304.85
779.381	311.88
779.776	265.07
780.171	269.75
780.566	286.13
780.961	251.02
781.356	337.62
781.751	262.73
782.146	279.11
782.54	274.43
782.935	302.51
783.33	286.13
783.724	314.22
784.119	213.57
784.513	290.81
784.908	286.13
785.302	232.3
785.696	283.79
786.09	349.32
786.485	314.22
786.879	358.69
787.273	283.79
787.667	323.58
788.061	262.73
788.454	260.38
788.848	304.85
789.242	309.54
789.636	293.15
790.029	356.35
790.423	255.7
790.816	288.47
791.21	389.11
791.603	370.39
791.997	286.13
792.39	328.26
792.783	293.15
793.176	283.79
793.569	297.83
793.962	241.66
794.355	304.85
794.748	281.45
795.141	304.85
795.534	344.64
795.927	288.47
796.319	316.56
796.712	267.41
797.105	246.34
797.497	269.75
797.89	316.56
798.282	339.96
798.674	265.07
799.067	286.13
799.459	283.79
799.851	311.88
800.243	309.54
800.635	258.04
801.027	283.79
801.419	253.36
801.811	328.26
802.203	253.36
802.594	265.07
802.986	281.45
803.378	356.35
803.769	332.94
804.161	323.58
804.552	300.17
804.944	276.77
805.335	314.22
805.726	311.88
806.118	344.64
806.509	351.67
806.9	297.83
807.291	330.6
807.682	323.58
808.073	279.11
808.464	307.2
808.855	321.24
809.245	290.81
809.636	307.2
810.027	288.47
810.417	311.88
810.808	286.13
811.198	332.94
811.589	335.28
811.979	269.75
812.369	300.17
812.759	339.96
813.15	279.11
813.54	279.11
813.93	251.02
814.32	323.58
814.71	295.49
815.1	297.83
815.489	246.34
815.879	274.43
816.269	288.47
816.658	241.66
817.048	255.7
817.438	272.09
817.827	337.62
818.216	269.75
818.606	321.24
818.995	314.22
819.384	276.77
819.773	304.85
820.163	321.24
820.552	342.3
820.941	274.43
821.33	274.43
821.718	354.01
822.107	290.81
822.496	293.15
822.885	314.22
823.273	276.77
823.662	288.47
824.05	281.45
824.439	290.81
824.827	316.56
825.216	339.96
825.604	316.56
825.992	356.35
826.38	309.54
826.768	302.51
827.156	267.41
827.544	265.07
827.932	239.32
828.32	244
828.708	253.36
829.096	335.28
829.483	337.62
829.871	325.92
830.259	323.58
830.646	314.22
831.034	307.2
831.421	314.22
831.808	274.43
832.196	311.88
832.583	311.88
832.97	265.07
833.357	297.83
833.744	332.94
834.131	309.54
834.518	318.9
834.905	379.75
835.292	302.51
835.678	227.62
836.065	248.68
836.452	318.9
836.838	302.51
837.225	332.94
837.611	276.77
837.998	307.2
838.384	290.81
838.77	276.77
839.157	283.79
839.543	260.38
839.929	279.11
840.315	281.45
840.701	236.98
841.087	300.17
841.473	269.75
841.858	321.24
842.244	309.54
842.63	342.3
843.015	272.09
843.401	400.82
843.787	267.41
844.172	361.03
844.557	297.83
844.943	323.58
845.328	279.11
845.713	297.83
846.098	386.77
846.483	293.15
846.868	283.79
847.253	241.66
847.638	283.79
848.023	281.45
848.408	370.39
848.793	304.85
849.177	349.32
849.562	272.09
849.947	272.09
850.331	307.2
850.715	307.2
851.1	248.68
851.484	332.94
851.868	346.98
852.253	251.02
852.637	311.88
853.021	269.75
853.405	279.11
853.789	295.49
854.173	288.47
854.557	290.81
854.94	330.6
855.324	246.34
855.708	302.51
856.091	279.11
856.475	248.68
856.858	332.94
857.242	300.17
857.625	295.49
858.009	339.96
858.392	283.79
858.775	330.6
859.158	290.81
859.541	274.43
859.924	304.85
860.307	262.73
860.69	286.13
861.073	300.17
861.456	318.9
861.838	325.92
862.221	328.26
862.604	251.02
862.986	290.81
863.369	262.73
863.751	358.69
864.133	229.96
864.516	274.43
864.898	253.36
865.28	318.9
865.662	281.45
866.044	307.2
866.426	290.81
866.808	239.32
867.19	300.17
867.572	304.85
867.954	363.37
868.336	234.64
868.717	335.28
869.099	244
869.48	349.32
869.862	269.75
870.243	267.41
870.625	269.75
871.006	337.62
871.387	300.17
871.768	260.38
872.149	311.88
872.53	265.07
872.911	323.58
873.292	248.68
873.673	255.7
874.054	239.32
874.435	281.45
874.815	269.75
875.196	227.62
875.577	318.9
875.957	283.79
876.338	276.77
876.718	288.47
877.098	314.22
877.479	300.17
877.859	332.94
878.239	344.64
878.619	283.79
878.999	236.98
879.379	300.17
879.759	293.15
880.139	279.11
880.519	323.58
880.898	342.3
881.278	229.96
881.658	300.17
882.037	279.11
882.417	241.66
882.796	265.07
883.176	330.6
883.555	328.26
883.934	260.38
884.313	368.05
884.693	272.09
885.072	262.73
885.451	356.35
885.83	302.51
886.209	267.41
886.587	314.22
886.966	342.3
887.345	328.26
887.724	272.09
888.102	279.11
888.481	302.51
888.859	302.51
889.238	337.62
889.616	342.3
889.994	330.6
890.373	323.58
890.751	304.85
891.129	323.58
891.507	321.24
891.885	346.98
892.263	265.07
892.641	288.47
893.019	241.66
893.396	318.9
893.774	314.22
894.152	286.13
894.529	311.88
894.907	236.98
895.284	337.62
895.662	255.7
896.039	321.24
896.416	342.3
896.794	220.6
897.171	267.41
897.548	318.9
897.925	300.17
898.302	288.47
898.679	283.79
899.056	269.75
899.433	328.26
899.809	253.36
900.186	255.7
900.563	272.09
900.939	265.07
901.316	253.36
901.692	361.03
902.069	295.49
902.445	342.3
902.821	248.68
903.197	281.45
903.574	236.98
903.95	251.02
904.326	288.47
904.702	311.88
905.078	300.17
905.454	309.54
905.829	293.15
906.205	255.7
906.581	314.22
906.956	351.67
907.332	300.17
907.707	272.09
908.083	342.3
908.458	330.6
908.833	279.11
909.209	276.77
909.584	295.49
909.959	311.88
910.334	281.45
910.709	283.79
911.084	335.28
911.459	265.07
911.834	300.17
912.209	323.58
912.583	300.17
912.958	260.38
913.333	318.9
913.707	244
914.082	269.75
914.456	351.67
914.83	330.6
915.205	262.73
915.579	248.68
915.953	368.05
916.327	260.38
916.701	267.41
917.075	356.35
917.449	279.11
917.823	253.36
918.197	321.24
918.571	302.51
918.944	328.26
919.318	302.51
919.692	351.67
920.065	304.85
920.438	323.58
920.812	342.3
921.185	234.64
921.558	255.7
921.932	288.47
922.305	372.73
922.678	236.98
923.051	267.41
923.424	253.36
923.797	335.28
924.17	279.11
924.542	290.81
924.915	288.47
925.288	295.49
925.661	316.56
926.033	311.88
926.406	314.22
926.778	265.07
927.15	288.47
927.523	316.56
927.895	300.17
928.267	349.32
928.639	272.09
929.011	260.38
929.383	311.88
929.755	272.09
930.127	351.67
930.499	300.17
930.871	335.28
931.242	332.94
931.614	300.17
931.986	311.88
932.357	342.3
932.729	316.56
933.1	297.83
933.471	295.49
933.843	309.54
934.214	293.15
934.585	307.2
934.956	339.96
935.327	293.15
935.698	304.85
936.069	267.41
936.44	283.79
936.811	262.73
937.182	290.81
937.552	297.83
937.923	307.2
938.293	276.77
938.664	267.41
939.034	262.73
939.405	297.83
939.775	288.47
940.145	339.96
940.516	316.56
940.886	300.17
941.256	330.6
941.626	297.83
941.996	309.54
942.366	311.88
942.735	332.94
943.105	323.58
943.475	260.38
943.845	295.49
944.214	337.62
944.584	363.37
944.953	321.24
945.323	265.07
945.692	321.24
946.061	309.54
946.43	274.43
946.8	276.77
947.169	281.45
947.538	304.85
947.907	370.39
948.276	286.13
948.645	316.56
949.013	234.64
949.382	344.64
949.751	288.47
950.119	297.83
950.488	222.94
950.857	314.22
951.225	302.51
951.593	199.53
951.962	344.64
952.33	368.05
952.698	260.38
953.066	290.81
953.434	304.85
953.802	339.96
954.17	304.85
954.538	297.83
954.906	272.09
955.274	316.56
955.642	328.26
956.009	307.2
956.377	236.98
956.744	239.32
957.112	274.43
957.479	276.77
957.847	307.2
958.214	309.54
958.581	288.47
958.948	389.11
959.315	293.15
959.683	321.24
960.05	314.22
960.416	260.38
960.783	236.98
961.15	262.73
961.517	318.9
961.884	293.15
962.25	293.15
962.617	239.32
962.983	239.32
963.35	370.39
963.716	318.9
964.082	309.54
964.449	255.7
964.815	236.98
965.181	255.7
965.547	318.9
965.913	229.96
966.279	342.3
966.645	295.49
967.011	304.85
967.377	286.13
967.742	265.07
968.108	222.94
968.474	349.32
968.839	269.75
969.205	293.15
969.57	272.09
969.935	307.2
970.301	304.85
970.666	236.98
971.031	309.54
971.396	318.9
971.761	283.79
972.126	283.79
972.491	262.73
972.856	258.04
973.221	332.94
973.586	304.85
973.95	337.62
974.315	346.98
974.679	274.43
975.044	354.01
975.408	251.02
975.773	356.35
976.137	276.77
976.501	281.45
976.866	293.15
977.23	339.96
977.594	286.13
977.958	279.11
978.322	215.91
978.686	229.96
979.049	262.73
979.413	274.43
979.777	325.92
980.141	332.94
980.504	297.83
980.868	290.81
981.231	375.07
981.595	330.6
981.958	349.32
982.321	339.96
982.684	290.81
983.048	262.73
983.411	346.98
983.774	276.77
984.137	276.77
984.5	337.62
984.862	314.22
985.225	253.36
985.588	330.6
985.951	339.96
986.313	342.3
986.676	269.75
987.038	346.98
987.401	323.58
987.763	267.41
988.125	321.24
988.488	293.15
988.85	253.36
989.212	283.79
989.574	274.43
989.936	304.85
990.298	286.13
990.66	323.58
991.022	304.85
991.383	267.41
991.745	349.32
992.107	339.96
992.468	260.38
992.83	269.75
993.191	302.51
993.553	286.13
993.914	337.62
994.275	265.07
994.637	349.32
994.998	304.85
995.359	269.75
995.72	276.77
996.081	248.68
996.442	337.62
996.803	274.43
997.163	269.75
997.524	316.56
997.885	283.79
998.245	281.45
998.606	253.36
998.966	232.3
999.327	232.3
999.687	281.45
1000.047	272.09
1000.408	276.77
1000.768	227.62
1001.128	316.56
1001.488	304.85
1001.848	281.45
1002.208	297.83
1002.568	328.26
1002.927	311.88
1003.287	302.51
1003.647	356.35
1004.007	363.37
1004.366	253.36
1004.726	262.73
1005.085	323.58
1005.444	300.17
1005.804	251.02
1006.163	375.07
1006.522	272.09
1006.881	255.7
1007.24	337.62
1007.599	288.47
1007.958	290.81
1008.317	314.22
1008.676	248.68
1009.035	337.62
1009.393	307.2
1009.752	276.77
1010.111	297.83
1010.469	302.51
1010.828	304.85
1011.186	302.51
1011.544	307.2
1011.903	293.15
1012.261	239.32
1012.619	279.11
1012.977	295.49
1013.335	325.92
1013.693	225.28
1014.051	236.98
1014.409	354.01
1014.767	274.43
1015.124	269.75
1015.482	356.35
1015.84	295.49
1016.197	293.15
1016.555	239.32
1016.912	307.2
1017.269	286.13
1017.627	316.56
1017.984	309.54
1018.341	255.7
1018.698	288.47
1019.055	330.6
1019.412	293.15
1019.769	244
1020.126	262.73
1020.483	344.64
1020.84	244
1021.196	314.22
1021.553	272.09
1021.909	281.45
1022.266	316.56
1022.622	286.13
1022.979	302.51
1023.335	337.62
1023.691	300.17
1024.047	321.24
1024.404	274.43
1024.76	258.04
1025.116	365.71
1025.472	332.94
1025.827	300.17
1026.183	272.09
1026.539	269.75
1026.895	286.13
1027.25	335.28
1027.606	318.9
1027.961	323.58
1028.317	246.34
1028.672	297.83
1029.028	321.24
1029.383	272.09
1029.738	251.02
1030.093	239.32
1030.448	321.24
1030.803	258.04
1031.158	309.54
1031.513	236.98
1031.868	279.11
1032.223	370.39
1032.577	246.34
1032.932	295.49
1033.287	262.73
1033.641	321.24
1033.996	288.47
1034.35	295.49
1034.704	321.24
1035.059	234.64
1035.413	356.35
1035.767	356.35
1036.121	356.35
