Data from Al_FLMS009871__953__16-20-01-821.txt Node

Date: Fri Mar 08 16:20:01 CST 2024
User: pe5414po
Spectrometer: FLMS00987
Trigger mode: 0
Integration Time (sec): 1.000000E-1
Scans to average: 1
Electric dark correction enabled: true
Nonlinearity correction enabled: false
Boxcar width: 0
XAxis mode: Wavelengths
Number of Pixels in Spectrum: 2048
>>>>>Begin Spectral Data<<<<<
188.938	-150.53
189.409	-150.53
189.879	-150.53
190.349	-159.89
190.819	-99.03
191.29	-84.99
191.76	-87.33
192.23	-108.4
192.7	-108.4
193.17	-77.97
193.64	-47.54
194.109	43.74
194.579	10.97
195.049	-3.07
195.519	39.06
195.988	3.95
196.458	57.78
196.927	41.4
197.397	62.46
197.866	111.61
198.336	146.72
198.805	200.55
199.274	85.87
199.744	207.58
200.213	153.74
200.682	156.08
201.151	202.9
201.62	191.19
202.089	177.15
202.558	202.9
203.027	216.94
203.495	305.88
203.964	282.47
204.433	284.81
204.902	188.85
205.37	223.96
205.839	282.47
206.307	270.77
206.776	263.75
207.244	233.32
207.712	294.18
208.181	331.62
208.649	350.35
209.117	294.18
209.585	294.18
210.053	273.11
210.521	315.24
210.989	254.39
211.457	310.56
211.925	277.79
212.393	289.5
212.861	305.88
213.328	280.13
213.796	252.05
214.264	226.3
214.731	317.58
215.199	301.2
215.666	266.09
216.133	214.6
216.601	238
217.068	284.81
217.535	256.73
218.003	245.02
218.47	223.96
218.937	245.02
219.404	287.15
219.871	212.26
220.338	233.32
220.805	219.28
221.271	252.05
221.738	212.26
222.205	230.98
222.671	294.18
223.138	207.58
223.605	223.96
224.071	240.34
224.538	263.75
225.004	249.71
225.47	266.09
225.937	233.32
226.403	277.79
226.869	289.5
227.335	315.24
227.801	291.84
228.267	289.5
228.733	179.49
229.199	280.13
229.665	235.66
230.131	364.39
230.597	209.92
231.062	266.09
231.528	233.32
231.994	289.5
232.459	322.26
232.925	235.66
233.39	216.94
233.856	252.05
234.321	238
234.786	249.71
235.252	280.13
235.717	266.09
236.182	275.45
236.647	277.79
237.112	198.21
237.577	252.05
238.042	245.02
238.507	212.26
238.972	245.02
239.436	256.73
239.901	275.45
240.366	284.81
240.83	235.66
241.295	223.96
241.76	212.26
242.224	263.75
242.688	277.79
243.153	247.37
243.617	322.26
244.081	245.02
244.545	270.77
245.01	338.65
245.474	324.6
245.938	221.62
246.402	294.18
246.866	345.67
247.33	261.41
247.793	198.21
248.257	291.84
248.721	216.94
249.185	256.73
249.648	233.32
250.112	312.9
250.575	336.31
251.039	261.41
251.502	301.2
251.965	256.73
252.429	277.79
252.892	261.41
253.355	266.09
253.818	252.05
254.281	282.47
254.744	291.84
255.207	298.86
255.67	226.3
256.133	242.68
256.596	177.15
257.059	270.77
257.522	298.86
257.984	233.32
258.447	266.09
258.909	275.45
259.372	317.58
259.834	256.73
260.297	298.86
260.759	301.2
261.221	305.88
261.684	270.77
262.146	310.56
262.608	280.13
263.07	312.9
263.532	296.52
263.994	326.94
264.456	303.54
264.918	326.94
265.38	221.62
265.842	240.34
266.303	312.9
266.765	268.43
267.227	303.54
267.688	240.34
268.15	277.79
268.611	357.37
269.072	282.47
269.534	221.62
269.995	193.53
270.456	310.56
270.918	266.09
271.379	219.28
271.84	287.15
272.301	259.07
272.762	336.31
273.223	273.11
273.684	282.47
274.144	277.79
274.605	249.71
275.066	270.77
275.527	298.86
275.987	238
276.448	291.84
276.908	268.43
277.369	247.37
277.829	322.26
278.289	268.43
278.75	261.41
279.21	310.56
279.67	277.79
280.13	263.75
280.59	268.43
281.05	312.9
281.51	228.64
281.97	273.11
282.43	238
282.89	310.56
283.35	282.47
283.809	282.47
284.269	355.03
284.729	254.39
285.188	284.81
285.648	298.86
286.107	275.45
286.567	322.26
287.026	205.24
287.485	240.34
287.944	280.13
288.404	287.15
288.863	338.65
289.322	280.13
289.781	305.88
290.24	303.54
290.699	366.73
291.158	312.9
291.616	317.58
292.075	329.28
292.534	268.43
292.992	317.58
293.451	296.52
293.91	270.77
294.368	284.81
294.827	287.15
295.285	242.68
295.743	268.43
296.202	298.86
296.66	230.98
297.118	305.88
297.576	331.62
298.034	291.84
298.492	308.22
298.95	282.47
299.408	249.71
299.866	287.15
300.324	261.41
300.781	256.73
301.239	322.26
301.697	273.11
302.154	296.52
302.612	303.54
303.069	221.62
303.527	282.47
303.984	345.67
304.441	282.47
304.899	305.88
305.356	315.24
305.813	275.45
306.27	336.31
306.727	298.86
307.184	249.71
307.641	282.47
308.098	235.66
308.555	261.41
309.012	317.58
309.468	338.65
309.925	223.96
310.382	294.18
310.838	284.81
311.295	284.81
311.751	275.45
312.208	294.18
312.664	277.79
313.12	319.92
313.577	273.11
314.033	301.2
314.489	282.47
314.945	310.56
315.401	289.5
315.857	270.77
316.313	289.5
316.769	233.32
317.225	266.09
317.681	247.37
318.136	303.54
318.592	308.22
319.048	312.9
319.503	287.15
319.959	259.07
320.414	338.65
320.869	270.77
321.325	301.2
321.78	305.88
322.235	296.52
322.691	312.9
323.146	242.68
323.601	326.94
324.056	226.3
324.511	343.33
324.966	249.71
325.421	256.73
325.875	303.54
326.33	322.26
326.785	324.6
327.24	319.92
327.694	310.56
328.149	301.2
328.603	291.84
329.058	333.97
329.512	247.37
329.966	373.75
330.421	270.77
330.875	383.12
331.329	273.11
331.783	291.84
332.237	280.13
332.691	326.94
333.145	326.94
333.599	280.13
334.053	326.94
334.507	326.94
334.96	308.22
335.414	326.94
335.868	266.09
336.321	294.18
336.775	312.9
337.228	289.5
337.682	336.31
338.135	319.92
338.588	268.43
339.042	310.56
339.495	270.77
339.948	322.26
340.401	223.96
340.854	301.2
341.307	256.73
341.76	294.18
342.213	296.52
342.666	284.81
343.119	256.73
343.571	333.97
344.024	221.62
344.477	324.6
344.929	259.07
345.382	305.88
345.834	254.39
346.287	273.11
346.739	291.84
347.191	357.37
347.644	263.75
348.096	326.94
348.548	298.86
349	228.64
349.452	284.81
349.904	331.62
350.356	322.26
350.808	275.45
351.26	371.41
351.711	319.92
352.163	245.02
352.615	324.6
353.066	305.88
353.518	315.24
353.969	303.54
354.421	312.9
354.872	352.69
355.324	315.24
355.775	254.39
356.226	291.84
356.677	348.01
357.128	305.88
357.579	371.41
358.03	247.37
358.481	294.18
358.932	270.77
359.383	319.92
359.834	338.65
360.285	315.24
360.735	287.15
361.186	322.26
361.637	298.86
362.087	280.13
362.538	277.79
362.988	348.01
363.438	245.02
363.889	312.9
364.339	312.9
364.789	221.62
365.239	322.26
365.689	317.58
366.139	301.2
366.589	376.09
367.039	282.47
367.489	310.56
367.939	355.03
368.389	322.26
368.839	280.13
369.288	326.94
369.738	261.41
370.187	308.22
370.637	226.3
371.086	317.58
371.536	289.5
371.985	261.41
372.434	275.45
372.884	247.37
373.333	303.54
373.782	209.92
374.231	252.05
374.68	273.11
375.129	268.43
375.578	301.2
376.027	273.11
376.475	261.41
376.924	331.62
377.373	287.15
377.822	322.26
378.27	336.31
378.719	331.62
379.167	305.88
379.616	273.11
380.064	287.15
380.512	256.73
380.961	305.88
381.409	315.24
381.857	247.37
382.305	263.75
382.753	338.65
383.201	348.01
383.649	230.98
384.097	348.01
384.545	280.13
384.992	284.81
385.44	359.71
385.888	277.79
386.335	261.41
386.783	298.86
387.231	291.84
387.678	329.28
388.125	301.2
388.573	331.62
389.02	266.09
389.467	312.9
389.914	359.71
390.362	256.73
390.809	310.56
391.256	259.07
391.703	352.69
392.15	301.2
392.596	357.37
393.043	336.31
393.49	338.65
393.937	277.79
394.383	294.18
394.83	256.73
395.276	298.86
395.723	308.22
396.169	301.2
396.616	301.2
397.062	301.2
397.508	331.62
397.954	228.64
398.401	308.22
398.847	308.22
399.293	317.58
399.739	305.88
400.185	277.79
400.631	298.86
401.076	340.99
401.522	266.09
401.968	296.52
402.414	329.28
402.859	270.77
403.305	343.33
403.75	310.56
404.196	291.84
404.641	308.22
405.086	289.5
405.532	329.28
405.977	298.86
406.422	294.18
406.867	284.81
407.312	242.68
407.757	336.31
408.202	247.37
408.647	394.82
409.092	310.56
409.537	364.39
409.982	336.31
410.426	315.24
410.871	275.45
411.316	331.62
411.76	326.94
412.205	261.41
412.649	282.47
413.093	305.88
413.538	268.43
413.982	219.28
414.426	298.86
414.87	331.62
415.314	221.62
415.758	268.43
416.202	254.39
416.646	233.32
417.09	296.52
417.534	263.75
417.978	324.6
418.421	294.18
418.865	350.35
419.309	263.75
419.752	350.35
420.196	319.92
420.639	263.75
421.083	329.28
421.526	317.58
421.969	301.2
422.412	355.03
422.856	317.58
423.299	336.31
423.742	280.13
424.185	355.03
424.628	284.81
425.071	331.62
425.513	252.05
425.956	317.58
426.399	308.22
426.842	315.24
427.284	333.97
427.727	345.67
428.169	294.18
428.612	280.13
429.054	282.47
429.497	287.15
429.939	270.77
430.381	287.15
430.823	280.13
431.265	294.18
431.707	277.79
432.149	303.54
432.591	277.79
433.033	266.09
433.475	296.52
433.917	305.88
434.359	329.28
434.8	273.11
435.242	296.52
435.684	301.2
436.125	348.01
436.567	289.5
437.008	326.94
437.449	277.79
437.891	322.26
438.332	326.94
438.773	238
439.214	284.81
439.656	305.88
440.097	329.28
440.538	252.05
440.978	282.47
441.419	287.15
441.86	273.11
442.301	303.54
442.742	275.45
443.182	294.18
443.623	296.52
444.063	317.58
444.504	357.37
444.944	333.97
445.385	324.6
445.825	333.97
446.265	289.5
446.706	256.73
447.146	273.11
447.586	254.39
448.026	305.88
448.466	284.81
448.906	343.33
449.346	355.03
449.786	317.58
450.225	329.28
450.665	366.73
451.105	310.56
451.544	247.37
451.984	326.94
452.424	312.9
452.863	270.77
453.302	275.45
453.742	329.28
454.181	308.22
454.62	249.71
455.059	308.22
455.499	366.73
455.938	317.58
456.377	350.35
456.816	282.47
457.254	312.9
457.693	294.18
458.132	270.77
458.571	348.01
459.01	308.22
459.448	226.3
459.887	291.84
460.325	369.07
460.764	294.18
461.202	308.22
461.641	312.9
462.079	355.03
462.517	301.2
462.955	310.56
463.393	401.84
463.832	324.6
464.27	256.73
464.708	275.45
465.145	275.45
465.583	261.41
466.021	348.01
466.459	324.6
466.897	254.39
467.334	268.43
467.772	275.45
468.209	261.41
468.647	226.3
469.084	322.26
469.522	287.15
469.959	254.39
470.396	326.94
470.833	359.71
471.271	315.24
471.708	301.2
472.145	378.44
472.582	298.86
473.019	324.6
473.456	301.2
473.892	317.58
474.329	329.28
474.766	312.9
475.202	273.11
475.639	308.22
476.076	322.26
476.512	275.45
476.949	338.65
477.385	303.54
477.821	275.45
478.258	291.84
478.694	333.97
479.13	317.58
479.566	324.6
480.002	263.75
480.438	312.9
480.874	301.2
481.31	294.18
481.746	287.15
482.181	289.5
482.617	282.47
483.053	289.5
483.488	287.15
483.924	282.47
484.36	289.5
484.795	294.18
485.23	294.18
485.666	305.88
486.101	289.5
486.536	266.09
486.971	362.05
487.407	296.52
487.842	324.6
488.277	284.81
488.712	310.56
489.146	310.56
489.581	254.39
490.016	329.28
490.451	254.39
490.885	289.5
491.32	303.54
491.755	294.18
492.189	289.5
492.624	336.31
493.058	289.5
493.492	221.62
493.927	315.24
494.361	294.18
494.795	317.58
495.229	280.13
495.663	254.39
496.097	333.97
496.531	324.6
496.965	298.86
497.399	331.62
497.833	266.09
498.266	310.56
498.7	273.11
499.134	355.03
499.567	315.24
500.001	287.15
500.434	294.18
500.868	289.5
501.301	308.22
501.734	362.05
502.168	301.2
502.601	291.84
503.034	280.13
503.467	298.86
503.9	263.75
504.333	289.5
504.766	308.22
505.199	280.13
505.632	383.12
506.064	336.31
506.497	378.44
506.93	369.07
507.362	303.54
507.795	303.54
508.227	289.5
508.66	310.56
509.092	310.56
509.524	301.2
509.956	198.21
510.389	345.67
510.821	364.39
511.253	303.54
511.685	200.55
512.117	340.99
512.549	289.5
512.981	284.81
513.412	268.43
513.844	277.79
514.276	287.15
514.707	312.9
515.139	305.88
515.571	352.69
516.002	245.02
516.433	338.65
516.865	376.09
517.296	249.71
517.727	329.28
518.159	336.31
518.59	289.5
519.021	303.54
519.452	287.15
519.883	284.81
520.314	284.81
520.744	252.05
521.175	273.11
521.606	310.56
522.037	273.11
522.467	324.6
522.898	303.54
523.328	242.68
523.759	294.18
524.189	322.26
524.62	324.6
525.05	333.97
525.48	289.5
525.91	273.11
526.341	329.28
526.771	348.01
527.201	287.15
527.631	238
528.061	280.13
528.49	317.58
528.92	280.13
529.35	226.3
529.78	305.88
530.209	326.94
530.639	270.77
531.068	373.75
531.498	284.81
531.927	301.2
532.357	289.5
532.786	256.73
533.215	294.18
533.644	324.6
534.074	261.41
534.503	331.62
534.932	273.11
535.361	291.84
535.79	291.84
536.218	322.26
536.647	319.92
537.076	317.58
537.505	219.28
537.933	261.41
538.362	291.84
538.79	275.45
539.219	270.77
539.647	277.79
540.076	294.18
540.504	298.86
540.932	282.47
541.36	303.54
541.788	212.26
542.217	287.15
542.645	289.5
543.073	280.13
543.5	263.75
543.928	333.97
544.356	291.84
544.784	238
545.211	261.41
545.639	280.13
546.067	324.6
546.494	266.09
546.922	305.88
547.349	331.62
547.776	303.54
548.204	287.15
548.631	305.88
549.058	329.28
549.485	296.52
549.912	390.14
550.339	310.56
550.766	315.24
551.193	317.58
551.62	263.75
552.047	338.65
552.474	280.13
552.9	291.84
553.327	355.03
553.754	238
554.18	326.94
554.607	336.31
555.033	266.09
555.459	322.26
555.886	291.84
556.312	345.67
556.738	331.62
557.164	305.88
557.59	193.53
558.016	340.99
558.442	317.58
558.868	343.33
559.294	259.07
559.72	287.15
560.145	277.79
560.571	280.13
560.997	305.88
561.422	310.56
561.848	287.15
562.273	240.34
562.699	331.62
563.124	273.11
563.549	266.09
563.974	333.97
564.4	240.34
564.825	310.56
565.25	266.09
565.675	245.02
566.1	352.69
566.525	319.92
566.95	317.58
567.374	315.24
567.799	317.58
568.224	259.07
568.648	331.62
569.073	289.5
569.497	277.79
569.922	289.5
570.346	249.71
570.771	319.92
571.195	280.13
571.619	324.6
572.043	252.05
572.467	329.28
572.891	350.35
573.315	303.54
573.739	310.56
574.163	298.86
574.587	303.54
575.011	245.02
575.435	301.2
575.858	336.31
576.282	322.26
576.705	305.88
577.129	331.62
577.552	298.86
577.976	322.26
578.399	249.71
578.822	315.24
579.245	310.56
579.669	336.31
580.092	357.37
580.515	305.88
580.938	333.97
581.361	284.81
581.784	275.45
582.206	331.62
582.629	254.39
583.052	315.24
583.474	329.28
583.897	287.15
584.32	277.79
584.742	256.73
585.165	235.66
585.587	355.03
586.009	301.2
586.431	273.11
586.854	282.47
587.276	284.81
587.698	350.35
588.12	280.13
588.542	280.13
588.964	252.05
589.386	291.84
589.807	338.65
590.229	317.58
590.651	270.77
591.073	284.81
591.494	303.54
591.916	289.5
592.337	266.09
592.759	308.22
593.18	310.56
593.601	221.62
594.022	308.22
594.444	301.2
594.865	308.22
595.286	345.67
595.707	305.88
596.128	312.9
596.549	289.5
596.97	317.58
597.39	322.26
597.811	273.11
598.232	338.65
598.652	350.35
599.073	275.45
599.494	268.43
599.914	340.99
600.334	270.77
600.755	254.39
601.175	324.6
601.595	287.15
602.015	273.11
602.436	350.35
602.856	397.16
603.276	315.24
603.696	259.07
604.115	308.22
604.535	259.07
604.955	348.01
605.375	273.11
605.794	296.52
606.214	261.41
606.634	296.52
607.053	312.9
607.473	238
607.892	268.43
608.311	345.67
608.731	245.02
609.15	268.43
609.569	291.84
609.988	254.39
610.407	247.37
610.826	289.5
611.245	315.24
611.664	340.99
612.083	266.09
612.501	319.92
612.92	247.37
613.339	282.47
613.757	343.33
614.176	254.39
614.594	331.62
615.013	240.34
615.431	266.09
615.85	254.39
616.268	256.73
616.686	319.92
617.104	296.52
617.522	310.56
617.94	298.86
618.358	230.98
618.776	275.45
619.194	305.88
619.612	303.54
620.03	266.09
620.447	319.92
620.865	259.07
621.282	245.02
621.7	291.84
622.117	333.97
622.535	289.5
622.952	263.75
623.369	298.86
623.787	289.5
624.204	305.88
624.621	242.68
625.038	270.77
625.455	284.81
625.872	326.94
626.289	291.84
626.706	336.31
627.123	322.26
627.539	352.69
627.956	308.22
628.373	317.58
628.789	238
629.206	296.52
629.622	357.37
630.038	312.9
630.455	317.58
630.871	305.88
631.287	305.88
631.703	350.35
632.12	315.24
632.536	308.22
632.952	277.79
633.368	273.11
633.783	287.15
634.199	305.88
634.615	331.62
635.031	315.24
635.446	322.26
635.862	301.2
636.277	254.39
636.693	319.92
637.108	352.69
637.524	366.73
637.939	340.99
638.354	280.13
638.77	312.9
639.185	380.78
639.6	326.94
640.015	245.02
640.43	256.73
640.845	263.75
641.259	249.71
641.674	326.94
642.089	275.45
642.504	301.2
642.918	317.58
643.333	287.15
643.747	270.77
644.162	305.88
644.576	378.44
644.991	317.58
645.405	329.28
645.819	308.22
646.233	301.2
646.647	296.52
647.061	317.58
647.475	308.22
647.889	308.22
648.303	256.73
648.717	333.97
649.131	364.39
649.545	294.18
649.958	275.45
650.372	301.2
650.785	273.11
651.199	280.13
651.612	263.75
652.026	315.24
652.439	294.18
652.852	350.35
653.266	298.86
653.679	266.09
654.092	296.52
654.505	273.11
654.918	310.56
655.331	275.45
655.744	301.2
656.156	333.97
656.569	284.81
656.982	336.31
657.394	310.56
657.807	270.77
658.22	277.79
658.632	287.15
659.044	303.54
659.457	284.81
659.869	261.41
660.281	301.2
660.693	333.97
661.106	319.92
661.518	310.56
661.93	298.86
662.342	308.22
662.754	315.24
663.165	303.54
663.577	275.45
663.989	270.77
664.401	247.37
664.812	324.6
665.224	282.47
665.635	230.98
666.047	322.26
666.458	301.2
666.869	319.92
667.281	336.31
667.692	319.92
668.103	329.28
668.514	340.99
668.925	289.5
669.336	280.13
669.747	294.18
670.158	312.9
670.569	296.52
670.979	252.05
671.39	303.54
671.801	348.01
672.211	235.66
672.622	301.2
673.032	242.68
673.443	268.43
673.853	228.64
674.263	219.28
674.674	247.37
675.084	266.09
675.494	343.33
675.904	291.84
676.314	310.56
676.724	305.88
677.134	343.33
677.544	329.28
677.953	322.26
678.363	275.45
678.773	352.69
679.182	282.47
679.592	326.94
680.001	301.2
680.411	296.52
680.82	310.56
681.23	266.09
681.639	336.31
682.048	322.26
682.457	245.02
682.866	336.31
683.275	282.47
683.684	275.45
684.093	343.33
684.502	275.45
684.911	289.5
685.32	280.13
685.728	287.15
686.137	301.2
686.546	305.88
686.954	266.09
687.363	350.35
687.771	338.65
688.179	317.58
688.588	263.75
688.996	310.56
689.404	310.56
689.812	350.35
690.22	261.41
690.628	336.31
691.036	214.6
691.444	298.86
691.852	333.97
692.26	289.5
692.667	261.41
693.075	317.58
693.483	336.31
693.89	319.92
694.298	298.86
694.705	303.54
695.112	266.09
695.52	326.94
695.927	322.26
696.334	298.86
696.741	310.56
697.148	273.11
697.555	289.5
697.962	277.79
698.369	284.81
698.776	270.77
699.183	266.09
699.59	266.09
699.996	245.02
700.403	352.69
700.81	252.05
701.216	221.62
701.623	240.34
702.029	336.31
702.435	249.71
702.842	294.18
703.248	380.78
703.654	329.28
704.06	280.13
704.466	333.97
704.872	315.24
705.278	301.2
705.684	340.99
706.09	336.31
706.496	315.24
706.901	310.56
707.307	242.68
707.712	305.88
708.118	275.45
708.523	277.79
708.929	312.9
709.334	369.07
709.74	329.28
710.145	245.02
710.55	343.33
710.955	287.15
711.36	268.43
711.765	303.54
712.17	280.13
712.575	282.47
712.98	825.48
713.385	343.33
713.789	301.2
714.194	275.45
714.599	312.9
715.003	336.31
715.408	273.11
715.812	326.94
716.217	296.52
716.621	343.33
717.025	355.03
717.429	270.77
717.833	247.37
718.238	343.33
718.642	291.84
719.046	233.32
719.449	200.55
719.853	301.2
720.257	310.56
720.661	340.99
721.065	261.41
721.468	273.11
721.872	326.94
722.275	355.03
722.679	296.52
723.082	317.58
723.485	350.35
723.889	340.99
724.292	261.41
724.695	235.66
725.098	345.67
725.501	319.92
725.904	277.79
726.307	298.86
726.71	266.09
727.113	233.32
727.516	340.99
727.918	291.84
728.321	294.18
728.724	315.24
729.126	284.81
729.529	362.05
729.931	350.35
730.333	315.24
730.736	254.39
731.138	315.24
731.54	301.2
731.942	277.79
732.344	254.39
732.746	322.26
733.148	296.52
733.55	289.5
733.952	310.56
734.354	322.26
734.756	366.73
735.157	249.71
735.559	280.13
735.96	298.86
736.362	263.75
736.763	336.31
737.165	226.3
737.566	359.71
737.967	336.31
738.368	303.54
738.77	303.54
739.171	331.62
739.572	282.47
739.973	256.73
740.374	338.65
740.774	404.18
741.175	338.65
741.576	317.58
741.977	277.79
742.377	303.54
742.778	345.67
743.178	303.54
743.579	369.07
743.979	273.11
744.379	273.11
744.78	284.81
745.18	338.65
745.58	333.97
745.98	266.09
746.38	280.13
746.78	305.88
747.18	289.5
747.58	259.07
747.98	216.94
748.38	158.43
748.779	324.6
749.179	252.05
749.578	249.71
749.978	298.86
750.377	247.37
750.777	254.39
751.176	270.77
751.575	296.52
751.975	247.37
752.374	277.79
752.773	275.45
753.172	289.5
753.571	287.15
753.97	277.79
754.369	319.92
754.768	259.07
755.166	200.55
755.565	249.71
755.964	348.01
756.362	308.22
756.761	319.92
757.159	324.6
757.558	277.79
757.956	294.18
758.354	298.86
758.753	280.13
759.151	216.94
759.549	282.47
759.947	305.88
760.345	266.09
760.743	298.86
761.141	308.22
761.539	238
761.936	291.84
762.334	249.71
762.732	238
763.129	331.62
763.527	296.52
763.924	303.54
764.322	348.01
764.719	226.3
765.117	301.2
765.514	235.66
765.911	245.02
766.308	298.86
766.705	289.5
767.102	317.58
767.499	317.58
767.896	270.77
768.293	247.37
768.69	326.94
769.086	336.31
769.483	294.18
769.88	336.31
770.276	333.97
770.673	331.62
771.069	364.39
771.466	324.6
771.862	280.13
772.258	277.79
772.654	305.88
773.05	233.32
773.447	338.65
773.843	298.86
774.239	343.33
774.634	268.43
775.03	266.09
775.426	238
775.822	322.26
776.218	305.88
776.613	305.88
777.009	348.01
777.404	287.15
777.8	305.88
778.195	268.43
778.59	296.52
778.986	326.94
779.381	240.34
779.776	277.79
780.171	221.62
780.566	273.11
780.961	270.77
781.356	296.52
781.751	259.07
782.146	348.01
782.54	298.86
782.935	364.39
783.33	235.66
783.724	338.65
784.119	340.99
784.513	294.18
784.908	266.09
785.302	247.37
785.696	336.31
786.09	277.79
786.485	277.79
786.879	273.11
787.273	324.6
787.667	289.5
788.061	296.52
788.454	324.6
788.848	317.58
789.242	273.11
789.636	336.31
790.029	249.71
790.423	282.47
790.816	256.73
791.21	373.75
791.603	252.05
791.997	305.88
792.39	275.45
792.783	273.11
793.176	242.68
793.569	326.94
793.962	315.24
794.355	226.3
794.748	294.18
795.141	275.45
795.534	294.18
795.927	296.52
796.319	326.94
796.712	310.56
797.105	230.98
797.497	268.43
797.89	273.11
798.282	289.5
798.674	298.86
799.067	333.97
799.459	329.28
799.851	270.77
800.243	303.54
800.635	340.99
801.027	254.39
801.419	331.62
801.811	326.94
802.203	301.2
802.594	263.75
802.986	275.45
803.378	319.92
803.769	303.54
804.161	261.41
804.552	331.62
804.944	282.47
805.335	336.31
805.726	249.71
806.118	289.5
806.509	343.33
806.9	252.05
807.291	280.13
807.682	235.66
808.073	303.54
808.464	268.43
808.855	294.18
809.245	252.05
809.636	266.09
810.027	324.6
810.417	273.11
810.808	305.88
811.198	336.31
811.589	301.2
811.979	296.52
812.369	289.5
812.759	235.66
813.15	270.77
813.54	308.22
813.93	296.52
814.32	303.54
814.71	266.09
815.1	298.86
815.489	298.86
815.879	296.52
816.269	291.84
816.658	282.47
817.048	298.86
817.438	280.13
817.827	282.47
818.216	303.54
818.606	331.62
818.995	322.26
819.384	322.26
819.773	326.94
820.163	259.07
820.552	315.24
820.941	305.88
821.33	324.6
821.718	270.77
822.107	240.34
822.496	291.84
822.885	329.28
823.273	310.56
823.662	308.22
824.05	348.01
824.439	303.54
824.827	294.18
825.216	228.64
825.604	298.86
825.992	322.26
826.38	305.88
826.768	245.02
827.156	310.56
827.544	261.41
827.932	277.79
828.32	263.75
828.708	266.09
829.096	284.81
829.483	280.13
829.871	277.79
830.259	280.13
830.646	305.88
831.034	310.56
831.421	275.45
831.808	226.3
832.196	256.73
832.583	259.07
832.97	261.41
833.357	273.11
833.744	261.41
834.131	357.37
834.518	259.07
834.905	247.37
835.292	256.73
835.678	317.58
836.065	280.13
836.452	254.39
836.838	296.52
837.225	291.84
837.611	266.09
837.998	247.37
838.384	312.9
838.77	348.01
839.157	242.68
839.543	273.11
839.929	263.75
840.315	282.47
840.701	289.5
841.087	238
841.473	266.09
841.858	289.5
842.244	336.31
842.63	247.37
843.015	338.65
843.401	591.42
843.787	317.58
844.172	317.58
844.557	329.28
844.943	317.58
845.328	308.22
845.713	303.54
846.098	280.13
846.483	247.37
846.868	242.68
847.253	242.68
847.638	226.3
848.023	298.86
848.408	259.07
848.793	322.26
849.177	322.26
849.562	289.5
849.947	336.31
850.331	305.88
850.715	319.92
851.1	296.52
851.484	256.73
851.868	340.99
852.253	263.75
852.637	275.45
853.021	305.88
853.405	305.88
853.789	221.62
854.173	223.96
854.557	324.6
854.94	282.47
855.324	291.84
855.708	249.71
856.091	289.5
856.475	343.33
856.858	308.22
857.242	280.13
857.625	263.75
858.009	280.13
858.392	282.47
858.775	275.45
859.158	312.9
859.541	308.22
859.924	340.99
860.307	280.13
860.69	301.2
861.073	277.79
861.456	331.62
861.838	282.47
862.221	397.16
862.604	242.68
862.986	249.71
863.369	348.01
863.751	322.26
864.133	259.07
864.516	294.18
864.898	291.84
865.28	317.58
865.662	249.71
866.044	282.47
866.426	268.43
866.808	266.09
867.19	345.67
867.572	357.37
867.954	303.54
868.336	305.88
868.717	329.28
869.099	256.73
869.48	294.18
869.862	319.92
870.243	277.79
870.625	266.09
871.006	245.02
871.387	348.01
871.768	345.67
872.149	301.2
872.53	249.71
872.911	289.5
873.292	336.31
873.673	308.22
874.054	331.62
874.435	249.71
874.815	317.58
875.196	312.9
875.577	294.18
875.957	263.75
876.338	277.79
876.718	270.77
877.098	287.15
877.479	296.52
877.859	303.54
878.239	352.69
878.619	303.54
878.999	268.43
879.379	277.79
879.759	329.28
880.139	282.47
880.519	259.07
880.898	282.47
881.278	268.43
881.658	350.35
882.037	326.94
882.417	254.39
882.796	336.31
883.176	277.79
883.555	268.43
883.934	247.37
884.313	256.73
884.693	275.45
885.072	282.47
885.451	301.2
885.83	277.79
886.209	282.47
886.587	240.34
886.966	322.26
887.345	340.99
887.724	371.41
888.102	298.86
888.481	282.47
888.859	249.71
889.238	268.43
889.616	319.92
889.994	275.45
890.373	266.09
890.751	329.28
891.129	338.65
891.507	280.13
891.885	310.56
892.263	263.75
892.641	322.26
893.019	312.9
893.396	261.41
893.774	252.05
894.152	284.81
894.529	343.33
894.907	291.84
895.284	266.09
895.662	289.5
896.039	315.24
896.416	357.37
896.794	308.22
897.171	371.41
897.548	233.32
897.925	315.24
898.302	303.54
898.679	322.26
899.056	268.43
899.433	298.86
899.809	273.11
900.186	230.98
900.563	230.98
900.939	301.2
901.316	317.58
901.692	266.09
902.069	263.75
902.445	333.97
902.821	308.22
903.197	284.81
903.574	305.88
903.95	242.68
904.326	329.28
904.702	326.94
905.078	287.15
905.454	296.52
905.829	369.07
906.205	308.22
906.581	322.26
906.956	348.01
907.332	259.07
907.707	357.37
908.083	317.58
908.458	362.05
908.833	326.94
909.209	352.69
909.584	326.94
909.959	247.37
910.334	296.52
910.709	270.77
911.084	357.37
911.459	345.67
911.834	287.15
912.209	230.98
912.583	336.31
912.958	280.13
913.333	308.22
913.707	319.92
914.082	273.11
914.456	252.05
914.83	294.18
915.205	280.13
915.579	270.77
915.953	270.77
916.327	303.54
916.701	296.52
917.075	322.26
917.449	336.31
917.823	336.31
918.197	301.2
918.571	287.15
918.944	296.52
919.318	355.03
919.692	242.68
920.065	298.86
920.438	376.09
920.812	305.88
921.185	298.86
921.558	326.94
921.932	266.09
922.305	378.44
922.678	296.52
923.051	261.41
923.424	284.81
923.797	371.41
924.17	291.84
924.542	273.11
924.915	298.86
925.288	273.11
925.661	319.92
926.033	242.68
926.406	252.05
926.778	308.22
927.15	355.03
927.523	256.73
927.895	280.13
928.267	280.13
928.639	256.73
929.011	298.86
929.383	305.88
929.755	247.37
930.127	303.54
930.499	301.2
930.871	298.86
931.242	282.47
931.614	268.43
931.986	305.88
932.357	266.09
932.729	308.22
933.1	326.94
933.471	296.52
933.843	324.6
934.214	287.15
934.585	359.71
934.956	350.35
935.327	296.52
935.698	291.84
936.069	296.52
936.44	324.6
936.811	240.34
937.182	230.98
937.552	289.5
937.923	287.15
938.293	301.2
938.664	348.01
939.034	329.28
939.405	261.41
939.775	319.92
940.145	355.03
940.516	317.58
940.886	317.58
941.256	308.22
941.626	312.9
941.996	317.58
942.366	326.94
942.735	322.26
943.105	331.62
943.475	277.79
943.845	242.68
944.214	266.09
944.584	221.62
944.953	273.11
945.323	249.71
945.692	289.5
946.061	287.15
946.43	282.47
946.8	275.45
947.169	301.2
947.538	228.64
947.907	315.24
948.276	322.26
948.645	287.15
949.013	228.64
949.382	268.43
949.751	338.65
950.119	287.15
950.488	296.52
950.857	305.88
951.225	273.11
951.593	336.31
951.962	273.11
952.33	249.71
952.698	315.24
953.066	228.64
953.434	303.54
953.802	261.41
954.17	263.75
954.538	338.65
954.906	282.47
955.274	245.02
955.642	298.86
956.009	275.45
956.377	298.86
956.744	322.26
957.112	275.45
957.479	256.73
957.847	329.28
958.214	331.62
958.581	333.97
958.948	235.66
959.315	291.84
959.683	261.41
960.05	282.47
960.416	291.84
960.783	317.58
961.15	308.22
961.517	284.81
961.884	289.5
962.25	289.5
962.617	317.58
962.983	340.99
963.35	268.43
963.716	294.18
964.082	289.5
964.449	266.09
964.815	263.75
965.181	259.07
965.547	301.2
965.913	270.77
966.279	259.07
966.645	312.9
967.011	305.88
967.377	317.58
967.742	298.86
968.108	277.79
968.474	287.15
968.839	296.52
969.205	303.54
969.57	355.03
969.935	315.24
970.301	333.97
970.666	319.92
971.031	273.11
971.396	317.58
971.761	263.75
972.126	226.3
972.491	266.09
972.856	317.58
973.221	289.5
973.586	214.6
973.95	256.73
974.315	249.71
974.679	289.5
975.044	270.77
975.408	270.77
975.773	273.11
976.137	259.07
976.501	280.13
976.866	317.58
977.23	312.9
977.594	252.05
977.958	305.88
978.322	275.45
978.686	294.18
979.049	319.92
979.413	270.77
979.777	352.69
980.141	268.43
980.504	273.11
980.868	322.26
981.231	303.54
981.595	329.28
981.958	254.39
982.321	223.96
982.684	333.97
983.048	282.47
983.411	261.41
983.774	266.09
984.137	317.58
984.5	259.07
984.862	359.71
985.225	256.73
985.588	212.26
985.951	326.94
986.313	277.79
986.676	291.84
987.038	263.75
987.401	348.01
987.763	294.18
988.125	329.28
988.488	322.26
988.85	303.54
989.212	266.09
989.574	305.88
989.936	298.86
990.298	310.56
990.66	310.56
991.022	324.6
991.383	287.15
991.745	266.09
992.107	340.99
992.468	289.5
992.83	212.26
993.191	310.56
993.553	287.15
993.914	291.84
994.275	340.99
994.637	245.02
994.998	275.45
995.359	254.39
995.72	289.5
996.081	249.71
996.442	289.5
996.803	287.15
997.163	336.31
997.524	294.18
997.885	338.65
998.245	308.22
998.606	263.75
998.966	270.77
999.327	245.02
999.687	336.31
1000.047	294.18
1000.408	223.96
1000.768	294.18
1001.128	289.5
1001.488	270.77
1001.848	348.01
1002.208	308.22
1002.568	319.92
1002.927	270.77
1003.287	280.13
1003.647	256.73
1004.007	275.45
1004.366	340.99
1004.726	317.58
1005.085	317.58
1005.444	273.11
1005.804	301.2
1006.163	296.52
1006.522	392.48
1006.881	312.9
1007.24	303.54
1007.599	247.37
1007.958	329.28
1008.317	312.9
1008.676	273.11
1009.035	263.75
1009.393	296.52
1009.752	252.05
1010.111	259.07
1010.469	303.54
1010.828	284.81
1011.186	287.15
1011.544	261.41
1011.903	254.39
1012.261	329.28
1012.619	263.75
1012.977	263.75
1013.335	298.86
1013.693	275.45
1014.051	326.94
1014.409	238
1014.767	270.77
1015.124	312.9
1015.482	310.56
1015.84	252.05
1016.197	305.88
1016.555	336.31
1016.912	287.15
1017.269	303.54
1017.627	256.73
1017.984	319.92
1018.341	256.73
1018.698	366.73
1019.055	249.71
1019.412	263.75
1019.769	280.13
1020.126	273.11
1020.483	294.18
1020.84	371.41
1021.196	266.09
1021.553	289.5
1021.909	266.09
1022.266	310.56
1022.622	291.84
1022.979	338.65
1023.335	252.05
1023.691	315.24
1024.047	303.54
1024.404	303.54
1024.76	289.5
1025.116	266.09
1025.472	273.11
1025.827	282.47
1026.183	240.34
1026.539	317.58
1026.895	301.2
1027.25	289.5
1027.606	303.54
1027.961	319.92
1028.317	280.13
1028.672	298.86
1029.028	298.86
1029.383	301.2
1029.738	294.18
1030.093	252.05
1030.448	294.18
1030.803	280.13
1031.158	294.18
1031.513	254.39
1031.868	308.22
1032.223	301.2
1032.577	242.68
1032.932	268.43
1033.287	298.86
1033.641	340.99
1033.996	340.99
1034.35	359.71
1034.704	249.71
1035.059	308.22
1035.413	301.2
1035.767	301.2
1036.121	301.2
